#    Energy           Range       dE/dx (elec)    dE/dx (nucl)
#   [MeV/u]         [mg/cm2]     [MeV/(mg/cm2)]  [MeV/(mg/cm2)]
# ------------------------------------------------------------
   0.0000e+00      0.0000e+00      0.0000e+00      0.0000e+00
   9.9206e-03      1.0308e+00      0.0000e+00      4.8120e-03
   1.0913e-02      1.2436e+00      0.0000e+00      4.5250e-03
   1.1905e-02      1.4692e+00      0.0000e+00      4.2750e-03
   1.2897e-02      1.7076e+00      0.0000e+00      4.0540e-03
   1.3889e-02      1.9585e+00      0.0000e+00      3.8580e-03
   1.4881e-02      2.2218e+00      0.0000e+00      3.6820e-03
   1.5873e-02      2.4972e+00      0.0000e+00      3.5240e-03
   1.6865e-02      2.7847e+00      0.0000e+00      3.3800e-03
   1.7857e-02      3.0692e+00      3.5382e-04      3.2490e-03
   1.9841e-02      3.4066e+00      1.2967e-02      3.0180e-03
   2.2321e-02      3.5066e+00      5.2403e-02      2.7770e-03
   2.4802e-02      3.5396e+00      1.1566e-01      2.5750e-03
   2.7282e-02      3.5562e+00      2.0059e-01      2.4040e-03
   2.9762e-02      3.5663e+00      3.0551e-01      2.2560e-03
   3.2242e-02      3.5732e+00      4.2892e-01      2.1270e-03
   3.4722e-02      3.5783e+00      5.6965e-01      2.0140e-03
   3.7202e-02      3.5821e+00      7.2640e-01      1.9130e-03
   3.9683e-02      3.5852e+00      8.9811e-01      1.8230e-03
   4.4643e-02      3.5899e+00      1.2809e+00      1.6680e-03
   4.9603e-02      3.5933e+00      1.7086e+00      1.5400e-03
   5.4563e-02      3.5959e+00      2.1717e+00      1.4320e-03
   5.9524e-02      3.5979e+00      2.6633e+00      1.3390e-03
   6.4484e-02      3.5997e+00      3.1756e+00      1.2590e-03
   6.9444e-02      3.6011e+00      3.7019e+00      1.1880e-03
   7.9365e-02      3.6035e+00      4.7784e+00      1.0700e-03
   8.9286e-02      3.6054e+00      5.8579e+00      9.7530e-04
   9.9206e-02      3.6069e+00      6.9186e+00      8.9710e-04
   1.0913e-01      3.6083e+00      7.9464e+00      8.3140e-04
   1.1905e-01      3.6095e+00      8.9311e+00      7.7550e-04
   1.2897e-01      3.6105e+00      9.8667e+00      7.2710e-04
   1.3889e-01      3.6115e+00      1.0754e+01      6.8490e-04
   1.4881e-01      3.6124e+00      1.1591e+01      6.4770e-04
   1.5873e-01      3.6132e+00      1.2381e+01      6.1460e-04
   1.6865e-01      3.6140e+00      1.3121e+01      5.8500e-04
   1.7857e-01      3.6147e+00      1.3819e+01      5.5840e-04
   1.9841e-01      3.6161e+00      1.5088e+01      5.1220e-04
   2.2321e-01      3.6177e+00      1.6466e+01      4.6490e-04
   2.4802e-01      3.6191e+00      1.7646e+01      4.2610e-04
   2.7282e-01      3.6205e+00      1.8654e+01      3.9380e-04
   2.9762e-01      3.6218e+00      1.9524e+01      3.6630e-04
   3.2242e-01      3.6230e+00      2.0274e+01      3.4260e-04
   3.4722e-01      3.6242e+00      2.0919e+01      3.2200e-04
   3.7202e-01      3.6254e+00      2.1480e+01      3.0390e-04
   3.9683e-01      3.6265e+00      2.1968e+01      2.8790e-04
   4.4643e-01      3.6288e+00      2.2755e+01      2.6070e-04
   4.9603e-01      3.6309e+00      2.3355e+01      2.3850e-04
   5.4563e-01      3.6330e+00      2.3798e+01      2.2000e-04
   5.9524e-01      3.6351e+00      2.4135e+01      2.0430e-04
   6.4484e-01      3.6371e+00      2.4371e+01      1.9080e-04
   6.9444e-01      3.6392e+00      2.4546e+01      1.7910e-04
   7.9365e-01      3.6432e+00      2.4730e+01      1.5980e-04
   8.9286e-01      3.6472e+00      2.4781e+01      1.4440e-04
   9.9206e-01      3.6512e+00      2.4727e+01      1.3190e-04
   1.0913e+00      3.6552e+00      2.4715e+01      1.2150e-04
   1.1905e+00      3.6593e+00      2.4472e+01      1.1270e-04
   1.2897e+00      3.6633e+00      2.4296e+01      1.0520e-04
   1.3889e+00      3.6674e+00      2.4108e+01      9.8620e-05
   1.4881e+00      3.6716e+00      2.3881e+01      9.2880e-05
   1.5873e+00      3.6757e+00      2.3623e+01      8.7810e-05
   1.6865e+00      3.6800e+00      2.3355e+01      8.3300e-05
   1.7857e+00      3.6842e+00      2.3062e+01      7.9250e-05
   1.9841e+00      3.6929e+00      2.2465e+01      7.2280e-05
   2.2321e+00      3.7041e+00      2.1829e+01      6.5210e-05
   2.4802e+00      3.7157e+00      2.1274e+01      5.9450e-05
   2.7282e+00      3.7275e+00      2.0732e+01      5.4680e-05
   2.9762e+00      3.7396e+00      2.0206e+01      5.0650e-05
   3.2242e+00      3.7520e+00      1.9700e+01      4.7200e-05
   3.4722e+00      3.7648e+00      1.9214e+01      4.4220e-05
   3.7202e+00      3.7778e+00      1.8748e+01      4.1600e-05
   3.9683e+00      3.7912e+00      1.8306e+01      3.9300e-05
   4.4643e+00      3.8190e+00      1.7477e+01      3.5410e-05
   4.9603e+00      3.8480e+00      1.6723e+01      3.2250e-05
   5.4563e+00      3.8783e+00      1.6032e+01      2.9630e-05
   5.9524e+00      3.9099e+00      1.5399e+01      2.7430e-05
   6.4484e+00      3.9427e+00      1.4818e+01      2.5540e-05
   6.9444e+00      3.9768e+00      1.4282e+01      2.3910e-05
   7.9365e+00      4.0488e+00      1.3323e+01      2.1220e-05
   8.9286e+00      4.1257e+00      1.2495e+01      1.9100e-05
   9.9206e+00      4.2075e+00      1.1769e+01      1.7380e-05
   1.0913e+01      4.2943e+00      1.1131e+01      1.5960e-05
   1.1905e+01      4.3858e+00      1.0564e+01      1.4760e-05
   1.2897e+01      4.4821e+00      1.0054e+01      1.3740e-05
   1.3889e+01      4.5831e+00      9.5964e+00      1.2850e-05
   1.4881e+01      4.6888e+00      9.1809e+00      1.2080e-05
   1.5873e+01      4.7992e+00      8.8030e+00      1.1400e-05
   1.6865e+01      4.9142e+00      8.4569e+00      1.0790e-05
   1.7857e+01      5.0337e+00      8.1427e+00      1.0250e-05
   1.9841e+01      5.2865e+00      7.5783e+00      9.3190e-06
   2.2321e+01      5.6277e+00      6.9829e+00      8.3790e-06
   2.4802e+01      5.9966e+00      6.4858e+00      7.6170e-06
   2.7282e+01      6.3926e+00      6.0548e+00      6.9870e-06
   2.9762e+01      6.8154e+00      5.6860e+00      6.4580e-06
   3.2242e+01      7.2648e+00      5.3620e+00      6.0050e-06
   3.4722e+01      7.7402e+00      5.0785e+00      5.6150e-06
   3.7202e+01      8.2413e+00      4.8266e+00      5.2740e-06
   3.9683e+01      8.7680e+00      4.6002e+00      4.9730e-06
   4.4643e+01      9.8957e+00      4.2134e+00      4.4680e-06
   4.9603e+01      1.1121e+01      3.8937e+00      4.0590e-06
   5.4563e+01      1.2443e+01      3.6229e+00      3.7220e-06
   5.9524e+01      1.3858e+01      3.3932e+00      3.4380e-06
   6.4484e+01      1.5365e+01      3.1954e+00      3.1960e-06
   6.9444e+01      1.6962e+01      3.0227e+00      2.9860e-06
   7.9365e+01      2.0416e+01      2.7358e+00      2.6430e-06
   8.9286e+01      2.4208e+01      2.5074e+00      2.3730e-06
   9.9206e+01      2.8323e+01      2.3212e+00      2.1550e-06
   1.0913e+02      3.2751e+01      2.1664e+00      1.9750e-06
   1.1905e+02      3.7477e+01      2.0355e+00      1.8230e-06
   1.2897e+02      4.2493e+01      1.9232e+00      1.6940e-06
   1.3889e+02      4.7787e+01      1.8266e+00      1.5830e-06
   1.4881e+02      5.3350e+01      1.7418e+00      1.4850e-06
   1.5873e+02      5.9173e+01      1.6670e+00      1.4000e-06
   1.6865e+02      6.5247e+01      1.6007e+00      1.3240e-06
   1.7857e+02      7.1564e+01      1.5413e+00      1.2560e-06
   1.9841e+02      8.4890e+01      1.4399e+00      1.1400e-06
   2.2321e+02      1.0277e+02      1.3373e+00      1.0230e-06
   2.4802e+02      1.2194e+02      1.2548e+00      9.2820e-07
   2.7282e+02      1.4226e+02      1.1870e+00      8.5010e-07
   2.9762e+02      1.6368e+02      1.1306e+00      7.8450e-07
   3.2242e+02      1.8610e+02      1.0827e+00      7.2860e-07
   3.4722e+02      2.0946e+02      1.0414e+00      6.8040e-07
   3.7202e+02      2.3369e+02      1.0059e+00      6.3830e-07
   3.9683e+02      2.5875e+02      9.7515e-01      6.0130e-07
   4.4643e+02      3.1103e+02      9.2372e-01      5.3920e-07
   4.9603e+02      3.6597e+02      8.8280e-01      4.8910e-07
   5.4563e+02      4.2323e+02      8.5006e-01      4.4780e-07
   5.9524e+02      4.8255e+02      8.2317e-01      4.1310e-07
   6.4484e+02      5.4365e+02      8.0057e-01      3.8350e-07
   6.9444e+02      6.0635e+02      7.8186e-01      3.5800e-07
   7.9365e+02      7.3574e+02      7.5224e-01      3.1630e-07
   8.9286e+02      8.6960e+02      7.3041e-01      2.8350e-07
   9.9206e+02      1.0070e+03      7.1404e-01      2.5710e-07
