#    Energy           Range       dE/dx (elec)    dE/dx (nucl)
#   [MeV/u]         [mg/cm2]     [MeV/(mg/cm2)]  [MeV/(mg/cm2)]
# ------------------------------------------------------------
   0.0000e+00      0.0000e+00      0.0000e+00      0.0000e+00
   1.0000e-03      7.2720e-03      3.4670e-02      1.6390e-03
   1.5000e-03      1.0330e-02      4.2460e-02      1.6400e-03
   2.0000e-03      1.3330e-02      4.9030e-02      1.6230e-03
   2.5000e-03      1.6250e-02      5.4820e-02      1.5970e-03
   3.0000e-03      1.9130e-02      6.0050e-02      1.5690e-03
   4.0000e-03      2.4770e-02      6.9340e-02      1.5100e-03
   5.0000e-03      3.0270e-02      7.7520e-02      1.4520e-03
   6.0000e-03      3.5670e-02      8.4920e-02      1.3980e-03
   7.0000e-03      4.0970e-02      9.1730e-02      1.3490e-03
   8.0000e-03      4.6180e-02      9.8060e-02      1.3020e-03
   9.0000e-03      5.1310e-02      1.0400e-01      1.2600e-03
   1.0000e-02      5.6350e-02      1.0960e-01      1.2200e-03
   1.2500e-02      6.8710e-02      1.2100e-01      1.1330e-03
   1.5000e-02      8.0780e-02      1.3090e-01      1.0600e-03
   1.7500e-02      9.2590e-02      1.3990e-01      9.9810e-04
   2.0000e-02      1.0420e-01      1.4800e-01      9.4410e-04
   2.2500e-02      1.1550e-01      1.5550e-01      8.9680e-04
   2.5000e-02      1.2660e-01      1.6230e-01      8.5490e-04
   2.7500e-02      1.3760e-01      1.6860e-01      8.1740e-04
   3.0000e-02      1.4830e-01      1.7450e-01      7.8370e-04
   3.5000e-02      1.6940e-01      1.8490e-01      7.2540e-04
   4.0000e-02      1.9000e-01      1.9400e-01      6.7650e-04
   4.5000e-02      2.1010e-01      2.0180e-01      6.3480e-04
   5.0000e-02      2.3000e-01      2.0850e-01      5.9880e-04
   5.5000e-02      2.4950e-01      2.1420e-01      5.6720e-04
   6.0000e-02      2.6880e-01      2.1900e-01      5.3930e-04
   6.5000e-02      2.8790e-01      2.2300e-01      5.1430e-04
   7.0000e-02      3.0700e-01      2.2630e-01      4.9190e-04
   7.5000e-02      3.2590e-01      2.2890e-01      4.7170e-04
   8.0000e-02      3.4480e-01      2.3100e-01      4.5330e-04
   8.5000e-02      3.6370e-01      2.3250e-01      4.3640e-04
   9.0000e-02      3.8250e-01      2.3340e-01      4.2100e-04
   9.5000e-02      4.0150e-01      2.3400e-01      4.0670e-04
   1.0000e-01      4.2050e-01      2.3410e-01      3.9350e-04
   1.2500e-01      5.1710e-01      2.3040e-01      3.3980e-04
   1.5000e-01      6.1810e-01      2.2190e-01      3.0030e-04
   1.7500e-01      7.2460e-01      2.1140e-01      2.6990e-04
   2.0000e-01      8.3740e-01      2.0060e-01      2.4560e-04
   2.2500e-01      9.5710e-01      1.9010e-01      2.2580e-04
   2.5000e-01      1.0840e+00      1.8060e-01      2.0920e-04
   2.7500e-01      1.2170e+00      1.7190e-01      1.9510e-04
   3.0000e-01      1.3580e+00      1.6410e-01      1.8290e-04
   3.5000e-01      1.6590e+00      1.5110e-01      1.6310e-04
   4.0000e-01      1.9860e+00      1.4060e-01      1.4740e-04
   4.5000e-01      2.3360e+00      1.3210e-01      1.3470e-04
   5.0000e-01      2.7070e+00      1.2510e-01      1.2420e-04
   5.5000e-01      3.0990e+00      1.1910e-01      1.1540e-04
   6.0000e-01      3.5100e+00      1.1400e-01      1.0780e-04
   6.5000e-01      3.9390e+00      1.0960e-01      1.0120e-04
   7.0000e-01      4.3850e+00      1.0560e-01      9.5500e-05
   7.5000e-01      4.8480e+00      1.0210e-01      9.0420e-05
   8.0000e-01      5.3270e+00      9.8920e-02      8.5900e-05
   8.5000e-01      5.8210e+00      9.5830e-02      8.1850e-05
   9.0000e-01      6.3320e+00      9.2830e-02      7.8190e-05
   9.5000e-01      6.8590e+00      8.9950e-02      7.4870e-05
   1.0000e+00      7.4040e+00      8.7220e-02      7.1840e-05
   1.2500e+00      1.0380e+01      7.5760e-02      5.9960e-05
   1.5000e+00      1.3780e+01      6.7410e-02      5.1660e-05
   1.7500e+00      1.7560e+01      6.1260e-02      4.5500e-05
   2.0000e+00      2.1680e+01      5.6630e-02      4.0740e-05
   2.2500e+00      2.6120e+01      5.2990e-02      3.6940e-05
   2.5000e+00      3.0850e+01      4.9880e-02      3.3830e-05
   2.7500e+00      3.5860e+01      4.7240e-02      3.1230e-05
   3.0000e+00      4.1140e+01      4.4910e-02      2.9030e-05
   3.5000e+00      5.2510e+01      4.1010e-02      2.5490e-05
   4.0000e+00      6.4900e+01      3.7830e-02      2.2760e-05
   4.5000e+00      7.8280e+01      3.5190e-02      2.0590e-05
   5.0000e+00      9.2630e+01      3.2950e-02      1.8820e-05
   5.5000e+00      1.0790e+02      3.1030e-02      1.7350e-05
   6.0000e+00      1.2410e+02      2.9350e-02      1.6100e-05
   6.5000e+00      1.4120e+02      2.7870e-02      1.5020e-05
   7.0000e+00      1.5920e+02      2.6570e-02      1.4090e-05
   7.5000e+00      1.7810e+02      2.5390e-02      1.3280e-05
   8.0000e+00      1.9780e+02      2.4330e-02      1.2550e-05
   8.5000e+00      2.1830e+02      2.3360e-02      1.1910e-05
   9.0000e+00      2.3970e+02      2.2480e-02      1.1330e-05
   9.5000e+00      2.6190e+02      2.1670e-02      1.0810e-05
   1.0000e+01      2.8500e+02      2.0930e-02      1.0340e-05
   1.2500e+01      4.1190e+02      1.7950e-02      8.5100e-06
   1.5000e+01      5.5800e+02      1.5800e-02      7.2530e-06
   1.7500e+01      7.2250e+02      1.4170e-02      6.3320e-06
   2.0000e+01      9.0460e+02      1.2880e-02      5.6280e-06
   2.5000e+01      1.3200e+03      1.0960e-02      4.6180e-06
   2.7500e+01      1.5530e+03      1.0230e-02      4.2430e-06
   3.0000e+01      1.8010e+03      9.6030e-03      3.9260e-06
   3.5000e+01      2.3440e+03      8.5800e-03      3.4210e-06
   4.0000e+01      2.9480e+03      7.7810e-03      3.0360e-06
   4.5000e+01      3.6100e+03      7.1380e-03      2.7310e-06
   5.0000e+01      4.3280e+03      6.6090e-03      2.4840e-06
   5.5000e+01      5.1010e+03      6.1660e-03      2.2790e-06
   6.0000e+01      5.9270e+03      5.7880e-03      2.1070e-06
   6.5000e+01      6.8040e+03      5.4620e-03      1.9600e-06
   7.0000e+01      7.7320e+03      5.1780e-03      1.8330e-06
   7.5000e+01      8.7090e+03      4.9280e-03      1.7210e-06
   8.0000e+01      9.7340e+03      4.7060e-03      1.6230e-06
   8.5000e+01      1.0810e+04      4.5070e-03      1.5360e-06
   9.0000e+01      1.1920e+04      4.3290e-03      1.4580e-06
   9.5000e+01      1.3090e+04      4.1680e-03      1.3880e-06
   1.0000e+02      1.4290e+04      4.0210e-03      1.3250e-06
   1.2500e+02      2.0950e+04      3.4510e-03      1.0800e-06
   1.5000e+02      2.8580e+04      3.0580e-03      9.1340e-07
   1.7500e+02      3.7090e+04      2.7700e-03      7.9250e-07
   2.0000e+02      4.6400e+04      2.5510e-03      7.0060e-07
   2.2500e+02      5.6460e+04      2.3780e-03      6.2830e-07
   2.5000e+02      6.7190e+04      2.2380e-03      5.6980e-07
   2.7500e+02      7.8550e+04      2.1230e-03      5.2160e-07
   3.0000e+02      9.0500e+04      2.0270e-03      4.8110e-07
   3.5000e+02      1.1590e+05      1.8750e-03      4.1690e-07
   4.0000e+02      1.4320e+05      1.7620e-03      3.6810e-07
   4.5000e+02      1.7210e+05      1.6740e-03      3.2980e-07
   5.0000e+02      2.0240e+05      1.6040e-03      2.9890e-07
   5.5000e+02      2.3390e+05      1.5480e-03      2.7350e-07
   6.0000e+02      2.6650e+05      1.5020e-03      2.5210e-07
   6.5000e+02      3.0000e+05      1.4630e-03      2.3400e-07
   7.0000e+02      3.3430e+05      1.4310e-03      2.1830e-07
   7.5000e+02      3.6930e+05      1.4040e-03      2.0470e-07
   8.0000e+02      4.0500e+05      1.3810e-03      1.9270e-07
   8.5000e+02      4.4130e+05      1.3610e-03      1.8200e-07
   9.0000e+02      4.7800e+05      1.3440e-03      1.7260e-07
   9.5000e+02      5.1520e+05      1.3290e-03      1.6410e-07
   1.0000e+03      5.5280e+05      1.3170e-03      1.5640e-07
   1.5000e+03      9.4250e+05      1.2520e-03      1.0700e-07
   2.0000e+03      1.3430e+06      1.2380e-03      8.1780e-08
   2.5000e+03      1.7460e+06      1.2410e-03      6.6390e-08
   3.0000e+03      2.1460e+06      1.2510e-03      5.6000e-08
   4.0000e+03      2.9350e+06      1.2780e-03      4.2830e-08
   5.0000e+03      3.7080e+06      1.3050e-03      3.4790e-08
   6.0000e+03      4.4660e+06      1.3300e-03      2.9350e-08
   7.0000e+03      5.2100e+06      1.3540e-03      2.5430e-08
   8.0000e+03      5.9420e+06      1.3750e-03      2.2450e-08
   9.0000e+03      6.6630e+06      1.3940e-03      2.0120e-08
   1.0000e+04      7.3760e+06      1.4120e-03      1.8240e-08
