#    Energy           Range       dE/dx (elec)    dE/dx (nucl)
#   [MeV/u]         [mg/cm2]     [MeV/(mg/cm2)]  [MeV/(mg/cm2)]
# ------------------------------------------------------------
   0.0000e+00      0.0000e+00      0.0000e+00      0.0000e+00
   1.0000e-03      2.3162e-03      1.7879e-01      3.7078e-02
   1.1250e-03      2.8900e-03      1.8416e-01      3.5742e-02
   1.2500e-03      3.4534e-03      1.8928e-01      3.4568e-02
   1.3750e-03      4.0070e-03      1.9421e-01      3.3522e-02
   1.5000e-03      4.5514e-03      1.9898e-01      3.2580e-02
   1.6250e-03      5.0869e-03      2.0363e-01      3.1725e-02
   1.7500e-03      5.6138e-03      2.0816e-01      3.0941e-02
   1.8750e-03      6.1326e-03      2.1259e-01      3.0219e-02
   2.0000e-03      6.6436e-03      2.1694e-01      2.9549e-02
   2.2500e-03      7.6433e-03      2.2543e-01      2.8341e-02
   2.5000e-03      8.6149e-03      2.3368e-01      2.7276e-02
   2.7500e-03      9.5602e-03      2.4172e-01      2.6325e-02
   3.0000e-03      1.0481e-02      2.4960e-01      2.5466e-02
   3.2500e-03      1.1379e-02      2.5732e-01      2.4685e-02
   3.5000e-03      1.2255e-02      2.6492e-01      2.3970e-02
   3.7500e-03      1.3110e-02      2.7239e-01      2.3310e-02
   4.0000e-03      1.3946e-02      2.7976e-01      2.2699e-02
   4.5000e-03      1.5564e-02      2.9420e-01      2.1600e-02
   5.0000e-03      1.7116e-02      3.0829e-01      2.0635e-02
   5.5000e-03      1.8607e-02      3.2207e-01      1.9777e-02
   6.0000e-03      2.0044e-02      3.3556e-01      1.9007e-02
   6.5000e-03      2.1430e-02      3.4879e-01      1.8312e-02
   7.0000e-03      2.2770e-02      3.6178e-01      1.7678e-02
   7.5000e-03      2.4067e-02      3.7453e-01      1.7098e-02
   8.0000e-03      2.5325e-02      3.8707e-01      1.6565e-02
   9.0000e-03      2.7734e-02      4.1152e-01      1.5613e-02
   1.0000e-02      3.0016e-02      4.3520e-01      1.4788e-02
   1.1250e-02      3.2713e-02      4.6381e-01      1.3896e-02
   1.2500e-02      3.5260e-02      4.9137e-01      1.3126e-02
   1.3750e-02      3.7677e-02      5.1797e-01      1.2452e-02
   1.5000e-02      3.9981e-02      5.4366e-01      1.1857e-02
   1.6250e-02      4.2184e-02      5.6849e-01      1.1326e-02
   1.7500e-02      4.4297e-02      5.9250e-01      1.0849e-02
   1.8750e-02      4.6331e-02      6.1573e-01      1.0417e-02
   2.0000e-02      4.8294e-02      6.3823e-01      1.0025e-02
   2.2500e-02      5.2032e-02      6.8113e-01      9.3352e-03
   2.5000e-02      5.5555e-02      7.2142e-01      8.7482e-03
   2.7500e-02      5.8895e-02      7.5932e-01      8.2412e-03
   3.0000e-02      6.2081e-02      7.9500e-01      7.7981e-03
   3.2500e-02      6.5133e-02      8.2861e-01      7.4068e-03
   3.5000e-02      6.8069e-02      8.6029e-01      7.0583e-03
   3.7500e-02      7.0904e-02      8.9017e-01      6.7456e-03
   4.0000e-02      7.3649e-02      9.1837e-01      6.4632e-03
   4.5000e-02      7.8914e-02      9.7013e-01      5.9723e-03
   5.0000e-02      8.3922e-02      1.0163e+00      5.5593e-03
   5.5000e-02      8.8720e-02      1.0575e+00      5.2063e-03
   6.0000e-02      9.3347e-02      1.0943e+00      4.9006e-03
   6.5000e-02      9.7830e-02      1.1272e+00      4.6328e-03
   7.0000e-02      1.0219e-01      1.1565e+00      4.3961e-03
   7.5000e-02      1.0645e-01      1.1826e+00      4.1850e-03
   8.0000e-02      1.1063e-01      1.2059e+00      3.9955e-03
   9.0000e-02      1.1876e-01      1.2449e+00      3.6688e-03
   1.0000e-01      1.2668e-01      1.2753e+00      3.3965e-03
   1.1250e-01      1.3635e-01      1.3035e+00      3.1133e-03
   1.2500e-01      1.4585e-01      1.3230e+00      2.8779e-03
   1.3750e-01      1.5523e-01      1.3355e+00      2.6788e-03
   1.5000e-01      1.6455e-01      1.3425e+00      2.5079e-03
   1.6250e-01      1.7383e-01      1.3449e+00      2.3594e-03
   1.7500e-01      1.8312e-01      1.3437e+00      2.2291e-03
   1.8750e-01      1.9242e-01      1.3396e+00      2.1137e-03
   2.0000e-01      2.0176e-01      1.3331e+00      2.0107e-03
   2.2500e-01      2.2061e-01      1.3149e+00      1.8344e-03
   2.5000e-01      2.3977e-01      1.2920e+00      1.6889e-03
   2.7500e-01      2.5929e-01      1.2660e+00      1.5665e-03
   3.0000e-01      2.7923e-01      1.2385e+00      1.4620e-03
   3.2500e-01      2.9963e-01      1.2101e+00      1.3716e-03
   3.5000e-01      3.2052e-01      1.1817e+00      1.2926e-03
   3.7500e-01      3.4191e-01      1.1534e+00      1.2229e-03
   4.0000e-01      3.6383e-01      1.1257e+00      1.1609e-03
   4.5000e-01      4.0930e-01      1.0725e+00      1.0552e-03
   5.0000e-01      4.5700e-01      1.0229e+00      9.6847e-04
   5.5000e-01      5.0698e-01      9.7713e-01      8.9581e-04
   6.0000e-01      5.5926e-01      9.3503e-01      8.3400e-04
   6.5000e-01      6.1384e-01      8.9640e-01      7.8073e-04
   7.0000e-01      6.7071e-01      8.6097e-01      7.3431e-04
   7.5000e-01      7.2988e-01      8.2842e-01      6.9346e-04
   8.0000e-01      7.9132e-01      7.9846e-01      6.5721e-04
   9.0000e-01      9.2092e-01      7.4528e-01      5.9567e-04
   1.0000e+00      1.0594e+00      6.9955e-01      5.4532e-04
   1.1250e+00      1.2446e+00      6.5070e-01      4.9386e-04
   1.2500e+00      1.4431e+00      6.0910e-01      4.5180e-04
   1.3750e+00      1.6546e+00      5.7320e-01      4.1674e-04
   1.5000e+00      1.8789e+00      5.4186e-01      3.8703e-04
   1.6250e+00      2.1156e+00      5.1423e-01      3.6152e-04
   1.7500e+00      2.3646e+00      4.8965e-01      3.3934e-04
   1.8750e+00      2.6257e+00      4.6762e-01      3.1988e-04
   2.0000e+00      2.8987e+00      4.4775e-01      3.0266e-04
   2.2500e+00      3.4800e+00      4.1326e-01      2.7352e-04
   2.5000e+00      4.1073e+00      3.8430e-01      2.4977e-04
   2.7500e+00      4.7798e+00      3.5958e-01      2.3001e-04
   3.0000e+00      5.4966e+00      3.3821e-01      2.1331e-04
   3.2500e+00      6.2569e+00      3.1951e-01      1.9899e-04
   3.5000e+00      7.0602e+00      3.0300e-01      1.8657e-04
   3.7500e+00      7.9058e+00      2.8829e-01      1.7569e-04
   4.0000e+00      8.7932e+00      2.7510e-01      1.6607e-04
   4.5000e+00      1.0691e+01      2.5239e-01      1.4982e-04
   5.0000e+00      1.2751e+01      2.3350e-01      1.3661e-04
   5.5000e+00      1.4970e+01      2.1750e-01      1.2564e-04
   6.0000e+00      1.7345e+01      2.0376e-01      1.1638e-04
   6.5000e+00      1.9874e+01      1.9182e-01      1.0846e-04
   7.0000e+00      2.2555e+01      1.8133e-01      1.0159e-04
   7.5000e+00      2.5385e+01      1.7203e-01      9.5586e-05
   8.0000e+00      2.8363e+01      1.6373e-01      9.0282e-05
   9.0000e+00      3.4758e+01      1.4952e-01      8.1336e-05
   1.0000e+01      4.1727e+01      1.3778e-01      7.4074e-05
   1.1250e+01      5.1231e+01      1.2567e-01      6.6708e-05
   1.2500e+01      6.1602e+01      1.1568e-01      6.0731e-05
   1.3750e+01      7.2826e+01      1.0728e-01      5.5780e-05
   1.5000e+01      8.4888e+01      1.0011e-01      5.1608e-05
   1.6250e+01      9.7779e+01      9.3922e-02      4.8042e-05
   1.7500e+01      1.1149e+02      8.8511e-02      4.4957e-05
   1.8750e+01      1.2600e+02      8.3739e-02      4.2261e-05
   2.0000e+01      1.4132e+02      7.9495e-02      3.9883e-05
   2.2500e+01      1.7433e+02      7.2268e-02      3.5879e-05
   2.5000e+01      2.1045e+02      6.6335e-02      3.2634e-05
   2.7500e+01      2.4964e+02      6.1370e-02      2.9949e-05
   3.0000e+01      2.9186e+02      5.7147e-02      2.7689e-05
   3.2500e+01      3.3708e+02      5.3508e-02      2.5759e-05
   3.5000e+01      3.8525e+02      5.0337e-02      2.4090e-05
   3.7500e+01      4.3635e+02      4.7547e-02      2.2633e-05
   4.0000e+01      4.9034e+02      4.5072e-02      2.1349e-05
   4.5000e+01      6.0693e+02      4.0869e-02      1.9188e-05
   5.0000e+01      7.3483e+02      3.7431e-02      1.7439e-05
   5.5000e+01      8.7389e+02      3.4561e-02      1.5994e-05
   6.0000e+01      1.0240e+03      3.2128e-02      1.4777e-05
   6.5000e+01      1.1849e+03      3.0036e-02      1.3740e-05
   7.0000e+01      1.3567e+03      2.8216e-02      1.2843e-05
   7.5000e+01      1.5391e+03      2.6619e-02      1.2061e-05
   8.0000e+01      1.7322e+03      2.5204e-02      1.1372e-05
   9.0000e+01      2.1496e+03      2.2806e-02      1.0213e-05
   1.0000e+02      2.6084e+03      2.0851e-02      9.2761e-06
   1.1250e+02      3.2393e+03      1.8856e-02      8.3292e-06
   1.2500e+02      3.9332e+03      1.7231e-02      7.5636e-06
   1.3750e+02      4.6892e+03      1.5878e-02      6.9313e-06
   1.5000e+02      5.5067e+03      1.4734e-02      6.3999e-06
   1.6250e+02      6.3850e+03      1.3752e-02      5.9469e-06
   1.7500e+02      7.3236e+03      1.2900e-02      5.5558e-06
   1.8750e+02      8.3219e+03      1.2154e-02      5.2147e-06
   2.0000e+02      9.3794e+03      1.1494e-02      4.9144e-06
   2.2500e+02      1.1670e+04      1.0378e-02      4.4100e-06
   2.5000e+02      1.4194e+04      9.4702e-03      4.0025e-06
   2.7500e+02      1.6947e+04      8.7162e-03      3.6661e-06
   3.0000e+02      1.9927e+04      8.0793e-03      3.3836e-06
   3.2500e+02      2.3132e+04      7.5338e-03      3.1429e-06
   3.5000e+02      2.6560e+04      7.0609e-03      2.9351e-06
   3.7500e+02      3.0209e+04      6.6470e-03      2.7540e-06
   4.0000e+02      3.4078e+04      6.2813e-03      2.5947e-06
   4.5000e+02      4.2469e+04      5.6641e-03      2.3271e-06
   5.0000e+02      5.1721e+04      5.1627e-03      2.1111e-06
   5.5000e+02      6.1826e+04      4.7468e-03      1.9328e-06
   6.0000e+02      7.2775e+04      4.3960e-03      1.7832e-06
   6.5000e+02      8.4561e+04      4.0958e-03      1.6558e-06
   7.0000e+02      9.7177e+04      3.8359e-03      1.5459e-06
   7.5000e+02      1.1062e+05      3.6086e-03      1.4501e-06
   8.0000e+02      1.2488e+05      3.4079e-03      1.3658e-06
   9.0000e+02      1.5582e+05      3.0696e-03      1.2244e-06
