#    Energy           Range       dE/dx (elec)    dE/dx (nucl)
#   [MeV/u]         [mg/cm2]     [MeV/(mg/cm2)]  [MeV/(mg/cm2)]
# ------------------------------------------------------------
   0.0000e+00      0.0000e+00      0.0000e+00      0.0000e+00
   7.0969e-03      6.1429e-04      2.6610e+00      8.1110e+00
   7.8066e-03      6.7623e-04      2.8160e+00      7.8820e+00
   8.5163e-03      7.3866e-04      2.9700e+00      7.6670e+00
   9.2259e-03      8.0142e-04      3.1220e+00      7.4640e+00
   9.9356e-03      8.6468e-04      3.2720e+00      7.2730e+00
   1.0645e-02      9.2827e-04      3.4200e+00      7.0930e+00
   1.1355e-02      9.9202e-04      3.5650e+00      6.9220e+00
   1.2065e-02      1.0561e-03      3.7070e+00      6.7610e+00
   1.2774e-02      1.1202e-03      3.8470e+00      6.6090e+00
   1.4194e-02      1.2490e-03      4.1190e+00      6.3270e+00
   1.5968e-02      1.4103e-03      4.4470e+00      6.0110e+00
   1.7742e-02      1.5716e-03      4.7650e+00      5.7310e+00
   1.9516e-02      1.7297e-03      5.0720e+00      5.4800e+00
   2.1291e-02      1.8944e-03      5.3710e+00      5.2530e+00
   2.3065e-02      2.0592e-03      5.6640e+00      5.0470e+00
   2.4839e-02      2.2074e-03      5.9500e+00      4.8600e+00
   2.6613e-02      2.3722e-03      6.2320e+00      4.6880e+00
   2.8388e-02      2.5204e-03      6.5090e+00      4.5300e+00
   3.1936e-02      2.8334e-03      7.0530e+00      4.2490e+00
   3.5484e-02      3.1299e-03      7.5850e+00      4.0050e+00
   3.9033e-02      3.4264e-03      8.1070e+00      3.7920e+00
   4.2581e-02      3.7065e-03      8.6210e+00      3.6040e+00
   4.6130e-02      3.9865e-03      9.1270e+00      3.4370e+00
   4.9678e-02      4.2501e-03      9.6260e+00      3.2860e+00
   5.6775e-02      4.7773e-03      1.0600e+01      3.0260e+00
   6.3872e-02      5.2714e-03      1.1540e+01      2.8100e+00
   7.0969e-02      5.7492e-03      1.2450e+01      2.6260e+00
   7.8066e-02      6.1940e-03      1.3330e+01      2.4670e+00
   8.5163e-02      6.6223e-03      1.4170e+01      2.3290e+00
   9.2259e-02      7.0341e-03      1.4980e+01      2.2080e+00
   9.9356e-02      7.4294e-03      1.5750e+01      2.1000e+00
   1.0645e-01      7.8248e-03      1.6480e+01      2.0030e+00
   1.1355e-01      8.1872e-03      1.7190e+01      1.9160e+00
   1.2065e-01      8.5496e-03      1.7860e+01      1.8370e+00
   1.2774e-01      8.9120e-03      1.8500e+01      1.7650e+00
   1.4194e-01      9.5874e-03      1.9690e+01      1.6390e+00
   1.5968e-01      1.0378e-02      2.1040e+01      1.5070e+00
   1.7742e-01      1.1136e-02      2.2250e+01      1.3970e+00
   1.9516e-01      1.1877e-02      2.3350e+01      1.3030e+00
   2.1291e-01      1.2569e-02      2.4350e+01      1.2230e+00
   2.3065e-01      1.3245e-02      2.5270e+01      1.1520e+00
   2.4839e-01      1.3903e-02      2.6120e+01      1.0900e+00
   2.6613e-01      1.4546e-02      2.6920e+01      1.0360e+00
   2.8388e-01      1.5172e-02      2.7670e+01      9.8650e-01
   3.1936e-01      1.6374e-02      2.9060e+01      9.0220e-01
   3.5484e-01      1.7528e-02      3.0340e+01      8.3250e-01
   3.9033e-01      1.8648e-02      3.1530e+01      7.7360e-01
   4.2581e-01      1.9719e-02      3.2650e+01      7.2330e-01
   4.6130e-01      2.0756e-02      3.3720e+01      6.7960e-01
   4.9678e-01      2.1778e-02      3.4750e+01      6.4140e-01
   5.6775e-01      2.3722e-02      3.6710e+01      5.7750e-01
   6.3872e-01      2.5583e-02      3.8570e+01      5.2610e-01
   7.0969e-01      2.7346e-02      4.0330e+01      4.8370e-01
   7.8066e-01      2.9042e-02      4.2020e+01      4.4820e-01
   8.5163e-01      3.0690e-02      4.3630e+01      4.1790e-01
   9.2259e-01      3.2271e-02      4.5180e+01      3.9180e-01
   9.9356e-01      3.3803e-02      4.6670e+01      3.6890e-01
   1.0645e+00      3.5286e-02      4.8090e+01      3.4880e-01
   1.1355e+00      3.6719e-02      4.9450e+01      3.3100e-01
   1.2065e+00      3.8136e-02      5.0750e+01      3.1500e-01
   1.2774e+00      3.9503e-02      5.2000e+01      3.0060e-01
   1.4194e+00      4.2155e-02      5.4340e+01      2.7560e-01
   1.5968e+00      4.5318e-02      5.6970e+01      2.5010e-01
   1.7742e+00      4.8366e-02      5.9310e+01      2.2920e-01
   1.9516e+00      5.1281e-02      6.1400e+01      2.1170e-01
   2.1291e+00      5.4115e-02      6.3260e+01      1.9690e-01
   2.3065e+00      5.6882e-02      6.4500e+01      1.8420e-01
   2.4839e+00      5.9617e-02      6.5430e+01      1.7310e-01
   2.6613e+00      6.2302e-02      6.6450e+01      1.6330e-01
   2.8388e+00      6.4938e-02      6.7320e+01      1.5470e-01
   3.1936e+00      7.0143e-02      6.8680e+01      1.4000e-01
   3.5484e+00      7.5266e-02      6.9620e+01      1.2810e-01
   3.9033e+00      8.0324e-02      7.0220e+01      1.1810e-01
   4.2581e+00      8.5365e-02      7.0560e+01      1.0970e-01
   4.6130e+00      9.0372e-02      7.0690e+01      1.0240e-01
   4.9678e+00      9.5380e-02      7.0660e+01      9.6160e-02
   5.6775e+00      1.0545e-01      7.0210e+01      8.5760e-02
   6.3872e+00      1.1559e-01      6.9430e+01      7.7500e-02
   7.0969e+00      1.2589e-01      6.8450e+01      7.0770e-02
   7.8066e+00      1.3633e-01      6.7340e+01      6.5170e-02
   8.5163e+00      1.4696e-01      6.6160e+01      6.0450e-02
   9.2259e+00      1.5776e-01      6.4950e+01      5.6390e-02
   9.9356e+00      1.6879e-01      6.3740e+01      5.2880e-02
   1.0645e+01      1.8002e-01      6.2540e+01      4.9800e-02
   1.1355e+01      1.9147e-01      6.1350e+01      4.7070e-02
   1.2065e+01      2.0313e-01      6.0200e+01      4.4650e-02
   1.2774e+01      2.1503e-01      5.9070e+01      4.2480e-02
   1.4194e+01      2.3950e-01      5.6910e+01      3.8740e-02
   1.5968e+01      2.7138e-01      5.4390e+01      3.4940e-02
   1.7742e+01      3.0472e-01      5.2050e+01      3.1850e-02
   1.9516e+01      3.3951e-01      4.9890e+01      2.9290e-02
   2.1291e+01      3.7580e-01      4.7880e+01      2.7130e-02
   2.3065e+01      4.1359e-01      4.6010e+01      2.5280e-02
   2.4839e+01      4.5290e-01      4.4260e+01      2.3680e-02
   2.6613e+01      4.9374e-01      4.2630e+01      2.2280e-02
   2.8388e+01      5.3612e-01      4.1090e+01      2.1040e-02
   3.1936e+01      6.2546e-01      3.8390e+01      1.8960e-02
   3.5484e+01      7.2076e-01      3.6100e+01      1.7260e-02
   3.9033e+01      8.2188e-01      3.4100e+01      1.5860e-02
   4.2581e+01      9.2871e-01      3.2340e+01      1.4680e-02
   4.6130e+01      1.0412e+00      3.0780e+01      1.3670e-02
   4.9678e+01      1.1592e+00      2.9380e+01      1.2790e-02
   5.6775e+01      1.4112e+00      2.6990e+01      1.1360e-02
   6.3872e+01      1.6803e+00      2.5020e+01      1.0220e-02
   7.0969e+01      1.9768e+00      2.3370e+01      9.3000e-03
