#    Energy           Range       dE/dx (elec)    dE/dx (nucl)
#   [MeV/u]         [mg/cm2]     [MeV/(mg/cm2)]  [MeV/(mg/cm2)]
# ------------------------------------------------------------
   0.0000e+00      0.0000e+00      0.0000e+00      0.0000e+00
   9.9206e-03      3.0903e-02      3.1310e-01      4.2220e-03
   1.0913e-02      3.3436e-02      3.2770e-01      3.9950e-03
   1.1905e-02      3.5877e-02      3.4190e-01      3.7940e-03
   1.2897e-02      3.8272e-02      3.5560e-01      3.6150e-03
   1.3889e-02      4.0575e-02      3.6880e-01      3.4550e-03
   1.4881e-02      4.2855e-02      3.8130e-01      3.3100e-03
   1.5873e-02      4.5065e-02      3.9330e-01      3.1790e-03
   1.6865e-02      4.7230e-02      4.0460e-01      3.0590e-03
   1.7857e-02      4.9349e-02      4.1520e-01      2.9490e-03
   1.9841e-02      5.3494e-02      4.3460e-01      2.7550e-03
   2.2321e-02      5.8491e-02      4.5560e-01      2.5490e-03
   2.4802e-02      6.3349e-02      4.7320e-01      2.3750e-03
   2.7282e-02      6.8070e-02      4.8780e-01      2.2260e-03
   2.9762e-02      7.2699e-02      4.9990e-01      2.0970e-03
   3.2242e-02      7.7258e-02      5.0970e-01      1.9840e-03
   3.4722e-02      8.1749e-02      5.1770e-01      1.8830e-03
   3.7202e-02      8.6216e-02      5.2400e-01      1.7940e-03
   3.9683e-02      9.0660e-02      5.2890e-01      1.7130e-03
   4.4643e-02      9.9480e-02      5.3520e-01      1.5750e-03
   4.9603e-02      1.0825e-01      5.3800e-01      1.4590e-03
   5.4563e-02      1.1707e-01      5.3820e-01      1.3600e-03
   5.9524e-02      1.2592e-01      5.3650e-01      1.2760e-03
   6.4484e-02      1.3483e-01      5.3340e-01      1.2020e-03
   6.9444e-02      1.4383e-01      5.2930e-01      1.1370e-03
   7.9365e-02      1.6214e-01      5.1920e-01      1.0280e-03
   8.9286e-02      1.8091e-01      5.0770e-01      9.4030e-04
   9.9206e-02      2.0016e-01      4.9570e-01      8.6730e-04
   1.0913e-01      2.1992e-01      4.8360e-01      8.0570e-04
   1.1905e-01      2.3949e-01      4.7170e-01      7.5310e-04
   1.2897e-01      2.6021e-01      4.6030e-01      7.0750e-04
   1.3889e-01      2.8324e-01      4.4920e-01      6.6750e-04
   1.4881e-01      3.0397e-01      4.3870e-01      6.3220e-04
   1.5873e-01      3.2699e-01      4.2860e-01      6.0080e-04
   1.6865e-01      3.5002e-01      4.1900e-01      5.7260e-04
   1.7857e-01      3.7305e-01      4.0990e-01      5.4710e-04
   1.9841e-01      4.2141e-01      3.9300e-01      5.0300e-04
   2.2321e-01      4.8589e-01      3.7410e-01      4.5760e-04
   2.4802e-01      5.5267e-01      3.5730e-01      4.2030e-04
   2.7282e-01      6.2175e-01      3.4230e-01      3.8900e-04
   2.9762e-01      6.9544e-01      3.2880e-01      3.6240e-04
   3.2242e-01      7.7143e-01      3.1660e-01      3.3950e-04
   3.4722e-01      8.4973e-01      3.0550e-01      3.1940e-04
   3.7202e-01      9.3263e-01      2.9540e-01      3.0180e-04
   3.9683e-01      1.0155e+00      2.8610e-01      2.8620e-04
   4.4643e-01      1.1928e+00      2.6960e-01      2.5960e-04
   4.9603e-01      1.3794e+00      2.5540e-01      2.3790e-04
   5.4563e-01      1.5774e+00      2.4300e-01      2.1970e-04
   5.9524e-01      1.7847e+00      2.3210e-01      2.0430e-04
   6.4484e-01      2.0011e+00      2.2240e-01      1.9110e-04
   6.9444e-01      2.2268e+00      2.1370e-01      1.7950e-04
   7.9365e-01      2.7035e+00      1.9860e-01      1.6040e-04
   8.9286e-01      3.2170e+00      1.8610e-01      1.4520e-04
   9.9206e-01      3.7604e+00      1.7550e-01      1.3280e-04
   1.0913e+00      4.3384e+00      1.6630e-01      1.2250e-04
   1.1905e+00      4.9464e+00      1.5710e-01      1.1370e-04
   1.2897e+00      5.5911e+00      1.4920e-01      1.0620e-04
   1.3889e+00      6.2682e+00      1.4230e-01      9.9650e-05
   1.4881e+00      6.9751e+00      1.3610e-01      9.3920e-05
   1.5873e+00      7.7143e+00      1.3050e-01      8.8860e-05
   1.6865e+00      8.4857e+00      1.2530e-01      8.4340e-05
   1.7857e+00      9.2871e+00      1.2070e-01      8.0290e-05
   1.9841e+00      1.0982e+01      1.1240e-01      7.3310e-05
   2.2321e+00      1.3266e+01      1.0370e-01      6.6200e-05
   2.4802e+00      1.5733e+01      9.6440e-02      6.0420e-05
   2.7282e+00      1.8376e+01      9.0230e-02      5.5620e-05
   2.9762e+00      2.1197e+01      8.4860e-02      5.1560e-05
   3.2242e+00      2.4186e+01      8.0180e-02      4.8080e-05
   3.4722e+00      2.7348e+01      7.6040e-02      4.5070e-05
   3.7202e+00      3.0673e+01      7.2360e-02      4.2430e-05
   3.9683e+00      3.4164e+01      6.9060e-02      4.0100e-05
   4.4643e+00      4.1627e+01      6.3380e-02      3.6160e-05
   4.9603e+00      4.9724e+01      5.8660e-02      3.2970e-05
   5.4563e+00      5.8445e+01      5.4660e-02      3.0310e-05
   5.9524e+00      6.7775e+01      5.1240e-02      2.8070e-05
   6.4484e+00      7.7707e+01      4.8260e-02      2.6160e-05
   6.9444e+00      8.8229e+01      4.5640e-02      2.4500e-05
   7.9365e+00      1.1100e+02      4.1250e-02      2.1770e-05
   8.9286e+00      1.3604e+02      3.7710e-02      1.9610e-05
   9.9206e+00      1.6332e+02      3.4790e-02      1.7860e-05
   1.0913e+01      1.9278e+02      3.2330e-02      1.6410e-05
   1.1905e+01      2.2439e+02      3.0230e-02      1.5180e-05
   1.2897e+01      2.5791e+02      2.8410e-02      1.4140e-05
   1.3889e+01      2.9476e+02      2.6820e-02      1.3230e-05
   1.4881e+01      3.3160e+02      2.5420e-02      1.2440e-05
   1.5873e+01      3.7075e+02      2.4170e-02      1.1740e-05
   1.6865e+01      4.1450e+02      2.3050e-02      1.1120e-05
   1.7857e+01      4.5825e+02      2.2040e-02      1.0570e-05
   1.9841e+01      5.5036e+02      2.0290e-02      9.6140e-06
   2.2321e+01      6.7932e+02      1.8500e-02      8.6500e-06
   2.4802e+01      8.1749e+02      1.7030e-02      7.8680e-06
   2.7282e+01      9.6717e+02      1.5800e-02      7.2210e-06
   2.9762e+01      1.1307e+03      1.4760e-02      6.6770e-06
   3.2242e+01      1.3034e+03      1.3860e-02      6.2120e-06
   3.4722e+01      1.4876e+03      1.3070e-02      5.8100e-06
   3.7202e+01      1.6810e+03      1.2380e-02      5.4590e-06
   3.9683e+01      1.8860e+03      1.1770e-02      5.1500e-06
   4.4643e+01      2.3258e+03      1.0740e-02      4.6290e-06
   4.9603e+01      2.8048e+03      9.8950e-03      4.2080e-06
   5.4563e+01      3.3229e+03      9.1910e-03      3.8590e-06
   5.9524e+01      3.8802e+03      8.5960e-03      3.5660e-06
   6.4484e+01      4.4720e+03      8.0850e-03      3.3160e-06
   6.9444e+01      5.1030e+03      7.6410e-03      3.1000e-06
   7.9365e+01      6.4639e+03      6.9090e-03      2.7460e-06
   8.9286e+01      7.9584e+03      6.3280e-03      2.4670e-06
   9.9206e+01      9.5842e+03      5.8570e-03      2.2410e-06
   1.0913e+02      1.1332e+04      5.4650e-03      2.0540e-06
   1.1905e+02      1.3200e+04      5.1350e-03      1.8970e-06
   1.2897e+02      1.5182e+04      4.8530e-03      1.7630e-06
   1.3889e+02      1.7273e+04      4.6090e-03      1.6480e-06
   1.4881e+02      1.9470e+04      4.3960e-03      1.5470e-06
   1.5873e+02      2.1770e+04      4.2080e-03      1.4580e-06
   1.6865e+02      2.4170e+04      4.0420e-03      1.3800e-06
   1.7857e+02      2.6664e+04      3.8920e-03      1.3090e-06
   1.9841e+02      3.1923e+04      3.6370e-03      1.1890e-06
   2.2321e+02      3.8979e+04      3.3800e-03      1.0670e-06
   2.4802e+02      4.6535e+04      3.1730e-03      9.6850e-07
   2.7282e+02      5.4553e+04      3.0020e-03      8.8730e-07
   2.9762e+02      6.2997e+04      2.8600e-03      8.1900e-07
   3.2242e+02      7.1837e+04      2.7390e-03      7.6090e-07
   3.4722e+02      8.1046e+04      2.6360e-03      7.1070e-07
   3.7202e+02      9.0598e+04      2.5460e-03      6.6700e-07
   3.9683e+02      1.0047e+05      2.4680e-03      6.2840e-07
   4.4643e+02      1.2108e+05      2.3380e-03      5.6380e-07
   4.9603e+02      1.4274e+05      2.2350e-03      5.1150e-07
   5.4563e+02      1.6531e+05      2.1520e-03      4.6850e-07
   5.9524e+02      1.8869e+05      2.0840e-03      4.3230e-07
   6.4484e+02      2.1278e+05      2.0270e-03      4.0140e-07
   6.9444e+02      2.3719e+05      1.9790e-03      3.7490e-07
   7.9365e+02      2.8785e+05      1.9040e-03      3.3130e-07
   8.9286e+02      3.4081e+05      1.8480e-03      2.9700e-07
   9.9206e+02      3.9608e+05      1.8050e-03      2.6940e-07
