#    Energy           Range       dE/dx (elec)    dE/dx (nucl)
#   [MeV/u]         [mg/cm2]     [MeV/(mg/cm2)]  [MeV/(mg/cm2)]
# ------------------------------------------------------------
   0.0000e+00      0.0000e+00      0.0000e+00      0.0000e+00
   5.0020e-03      2.3732e-03      1.2050e+00      5.9340e-01
   5.5022e-03      2.6031e-03      1.2370e+00      5.6710e-01
   6.0024e-03      2.8342e-03      1.2690e+00      5.4350e-01
   6.5026e-03      3.0664e-03      1.3000e+00      5.2200e-01
   7.0028e-03      3.2986e-03      1.3320e+00      5.0250e-01
   7.5030e-03      3.5308e-03      1.3640e+00      4.8450e-01
   8.0032e-03      3.7618e-03      1.3980e+00      4.6810e-01
   8.5034e-03      3.9917e-03      1.4320e+00      4.5290e-01
   9.0036e-03      4.2205e-03      1.4680e+00      4.3880e-01
   1.0004e-02      4.6721e-03      1.5430e+00      4.1350e-01
   1.1255e-02      5.2248e-03      1.6430e+00      3.8620e-01
   1.2505e-02      5.7612e-03      1.7470e+00      3.6280e-01
   1.3756e-02      6.2814e-03      1.8550e+00      3.4250e-01
   1.5006e-02      6.7829e-03      1.9660e+00      3.2470e-01
   1.6257e-02      7.2671e-03      2.0790e+00      3.0880e-01
   1.7507e-02      7.7350e-03      2.1930e+00      2.9470e-01
   1.8758e-02      8.1855e-03      2.3080e+00      2.8190e-01
   2.0008e-02      8.6209e-03      2.4220e+00      2.7040e-01
   2.2509e-02      9.4499e-03      2.6490e+00      2.5030e-01
   2.5010e-02      1.0227e-02      2.8710e+00      2.3330e-01
   2.7511e-02      1.0958e-02      3.0880e+00      2.1870e-01
   3.0012e-02      1.1611e-02      3.2970e+00      2.0610e-01
   3.2513e-02      1.2307e-02      3.4980e+00      1.9500e-01
   3.5014e-02      1.2888e-02      3.6920e+00      1.8510e-01
   4.0016e-02      1.4165e-02      4.0540e+00      1.6850e-01
   4.5018e-02      1.5210e-02      4.3840e+00      1.5490e-01
   5.0020e-02      1.6255e-02      4.6840e+00      1.4350e-01
   5.5022e-02      1.7184e-02      4.9570e+00      1.3390e-01
   6.0024e-02      1.8113e-02      5.2050e+00      1.2560e-01
   6.5026e-02      1.9041e-02      5.4300e+00      1.1830e-01
   7.0028e-02      1.9970e-02      5.6360e+00      1.1200e-01
   7.5030e-02      2.0783e-02      5.8240e+00      1.0630e-01
   8.0032e-02      2.1596e-02      5.9960e+00      1.0130e-01
   8.5034e-02      2.2409e-02      6.1540e+00      9.6710e-02
   9.0036e-02      2.3105e-02      6.2990e+00      9.2600e-02
   1.0004e-01      2.4615e-02      6.5580e+00      8.5420e-02
   1.1255e-01      2.6472e-02      6.8320e+00      7.8010e-02
   1.2505e-01      2.8214e-02      7.0630e+00      7.1880e-02
   1.3756e-01      2.9955e-02      7.2590e+00      6.6720e-02
   1.5006e-01      3.1581e-02      7.4290e+00      6.2310e-02
   1.6257e-01      3.3206e-02      7.5770e+00      5.8490e-02
   1.7507e-01      3.4832e-02      7.7070e+00      5.5160e-02
   1.8758e-01      3.6457e-02      7.8220e+00      5.2210e-02
   2.0008e-01      3.7967e-02      7.9250e+00      4.9590e-02
   2.2509e-01      4.1102e-02      8.1000e+00      4.5120e-02
   2.5010e-01      4.4120e-02      8.2420e+00      4.1440e-02
   2.7511e-01      4.7139e-02      8.3610e+00      3.8360e-02
   3.0012e-01      5.0042e-02      8.4600e+00      3.5740e-02
   3.2513e-01      5.2945e-02      8.5430e+00      3.3480e-02
   3.5014e-01      5.5847e-02      8.6130e+00      3.1510e-02
   4.0016e-01      6.1653e-02      8.7240e+00      2.8240e-02
   4.5018e-01      6.7226e-02      8.8040e+00      2.5620e-02
   5.0020e-01      7.2915e-02      8.8620e+00      2.3470e-02
   5.5022e-01      7.8488e-02      8.9020e+00      2.1680e-02
   6.0024e-01      8.4061e-02      8.9280e+00      2.0160e-02
   6.5026e-01      8.9634e-02      8.9430e+00      1.8860e-02
   7.0028e-01      9.5207e-02      8.9490e+00      1.7720e-02
   7.5030e-01      1.0078e-01      8.9480e+00      1.6720e-02
   8.0032e-01      1.0635e-01      8.9400e+00      1.5840e-02
   8.5034e-01      1.1193e-01      8.9260e+00      1.5050e-02
   9.0036e-01      1.1762e-01      8.9080e+00      1.4340e-02
   1.0004e+00      1.2876e-01      8.8610e+00      1.3110e-02
   1.1255e+00      1.4293e-01      8.7850e+00      1.1860e-02
   1.2505e+00      1.5721e-01      8.6960e+00      1.0840e-02
   1.3756e+00      1.7161e-01      8.5970e+00      9.9940e-03
   1.5006e+00      1.8623e-01      8.4920e+00      9.2750e-03
   1.6257e+00      2.0110e-01      8.3820e+00      8.6590e-03
   1.7507e+00      2.1607e-01      8.2690e+00      8.1240e-03
   1.8758e+00      2.3128e-01      8.1540e+00      7.6560e-03
   2.0008e+00      2.4673e-01      8.0390e+00      7.2410e-03
   2.2509e+00      2.7831e-01      7.7830e+00      6.5400e-03
   2.5010e+00      3.1105e-01      7.4760e+00      5.9690e-03
   2.7511e+00      3.4507e-01      7.2220e+00      5.4950e-03
   3.0012e+00      3.8025e-01      6.9800e+00      5.0940e-03
   3.2513e+00      4.1659e-01      6.7490e+00      4.7510e-03
   3.5014e+00      4.5421e-01      6.5310e+00      4.4530e-03
   4.0016e+00      5.3328e-01      6.1270e+00      3.9620e-03
   4.5018e+00      6.1745e-01      5.7650e+00      3.5730e-03
   5.0020e+00      7.0674e-01      5.4390e+00      3.2580e-03
   5.5022e+00      8.0125e-01      5.1450e+00      2.9960e-03
   6.0024e+00      9.0099e-01      4.8800e+00      2.7740e-03
   6.5026e+00      1.0061e+00      4.6400e+00      2.5850e-03
   7.0028e+00      1.1165e+00      4.4210e+00      2.4210e-03
   7.5030e+00      1.2322e+00      4.2210e+00      2.2780e-03
   8.0032e+00      1.3533e+00      4.0390e+00      2.1520e-03
   8.5034e+00      1.4798e+00      3.8710e+00      2.0390e-03
   9.0036e+00      1.6116e+00      3.7160e+00      1.9380e-03
   1.0004e+01      1.8913e+00      3.4410e+00      1.7650e-03
   1.1255e+01      2.2709e+00      3.1500e+00      1.5900e-03
   1.2505e+01      2.6841e+00      2.9050e+00      1.4470e-03
   1.3756e+01      3.1308e+00      2.6970e+00      1.3290e-03
   1.5006e+01      3.6108e+00      2.5170e+00      1.2300e-03
   1.6257e+01      4.1238e+00      2.3600e+00      1.1450e-03
   1.7507e+01      4.6695e+00      2.2230e+00      1.0710e-03
   1.8758e+01      5.2477e+00      2.1030e+00      1.0070e-03
   2.0008e+01      5.8578e+00      1.9960e+00      9.5060e-04
   2.2509e+01      7.1709e+00      1.8170e+00      8.5520e-04
   2.5010e+01      8.6049e+00      1.6740e+00      7.7790e-04
   2.7511e+01      1.0153e+01      1.5590e+00      7.1400e-04
   3.0012e+01      1.1843e+01      1.4670e+00      6.6020e-04
   3.2513e+01      1.3584e+01      1.3780e+00      6.1420e-04
   3.5014e+01      1.5442e+01      1.3000e+00      5.7450e-04
   4.0016e+01      1.9506e+01      1.1700e+00      5.0920e-04
   4.5018e+01      2.3918e+01      1.0670e+00      4.5780e-04
   5.0020e+01      2.8911e+01      9.8210e-01      4.1610e-04
   5.5022e+01      3.4135e+01      9.1180e-01      3.8170e-04
   6.0024e+01      3.9825e+01      8.5230e-01      3.5270e-04
   6.5026e+01      4.5862e+01      8.0120e-01      3.2800e-04
   7.0028e+01      5.2248e+01      7.5690e-01      3.0660e-04
   7.5030e+01      5.9098e+01      7.1810e-01      2.8800e-04
   8.0032e+01      6.6181e+01      6.8380e-01      2.7160e-04
   8.5034e+01      7.3728e+01      6.5320e-01      2.5700e-04
   9.0036e+01      8.1507e+01      6.2580e-01      2.4400e-04
   1.0004e+02      9.8110e+01      5.7880e-01      2.2160e-04
   1.1255e+02      1.2063e+02      5.3100e-01      1.9900e-04
   1.2505e+02      1.4513e+02      4.9230e-01      1.8080e-04
   1.3756e+02      1.7137e+02      4.6030e-01      1.6570e-04
   1.5006e+02      1.9935e+02      4.3330e-01      1.5300e-04
   1.6257e+02      2.2908e+02      4.1030e-01      1.4220e-04
   1.7507e+02      2.6031e+02      3.9050e-01      1.3290e-04
   1.8758e+02      2.9305e+02      3.7320e-01      1.2480e-04
   2.0008e+02      3.2730e+02      3.5800e-01      1.1760e-04
   2.2509e+02      3.9975e+02      3.3250e-01      1.0550e-04
   2.5010e+02      4.7743e+02      3.1190e-01      9.5810e-05
   2.7511e+02      5.5987e+02      2.9500e-01      8.7780e-05
   3.0012e+02      6.4671e+02      2.8090e-01      8.1030e-05
   3.2513e+02      7.3774e+02      2.6900e-01      7.5280e-05
   3.5014e+02      8.3248e+02      2.5880e-01      7.0320e-05
   4.0016e+02      1.0323e+03      2.4220e-01      6.2180e-05
   4.5018e+02      1.2445e+03      2.2940e-01      5.5780e-05
   5.0020e+02      1.4677e+03      2.1920e-01      5.0610e-05
