#    Energy           Range       dE/dx (elec)    dE/dx (nucl)
#   [MeV/u]         [mg/cm2]     [MeV/(mg/cm2)]  [MeV/(mg/cm2)]
# ------------------------------------------------------------
   0.0000e+00      0.0000e+00      0.0000e+00      0.0000e+00
   2.2244e-03      3.9185e-04      1.8210e+00      3.6040e+00
   2.4468e-03      4.2976e-04      1.8980e+00      3.5040e+00
   2.6693e-03      4.6799e-04      1.9740e+00      3.4100e+00
   2.8917e-03      5.0652e-04      2.0480e+00      3.3220e+00
   3.1142e-03      5.4505e-04      2.1210e+00      3.2380e+00
   3.3366e-03      5.8390e-04      2.1940e+00      3.1590e+00
   3.5590e-03      6.2274e-04      2.2670e+00      3.0850e+00
   3.7815e-03      6.6158e-04      2.3390e+00      3.0140e+00
   4.0039e-03      7.0074e-04      2.4100e+00      2.9470e+00
   4.4488e-03      7.7874e-04      2.5500e+00      2.8230e+00
   5.0049e-03      8.7600e-04      2.7200e+00      2.6850e+00
   5.5610e-03      9.7264e-04      2.8830e+00      2.5610e+00
   6.1171e-03      1.0693e-03      3.0390e+00      2.4500e+00
   6.6732e-03      1.1650e-03      3.1870e+00      2.3500e+00
   7.2293e-03      1.2601e-03      3.3270e+00      2.2590e+00
   7.7854e-03      1.3546e-03      3.4600e+00      2.1760e+00
   8.3415e-03      1.4484e-03      3.5860e+00      2.1000e+00
   8.8976e-03      1.5416e-03      3.7060e+00      2.0300e+00
   1.0010e-02      1.7259e-03      3.9260e+00      1.9050e+00
   1.1122e-02      1.9080e-03      4.1260e+00      1.7970e+00
   1.2234e-02      2.0876e-03      4.3090e+00      1.7020e+00
   1.3346e-02      2.2647e-03      4.4780e+00      1.6180e+00
   1.4459e-02      2.4400e-03      4.6390e+00      1.5440e+00
   1.5571e-02      2.6131e-03      4.7920e+00      1.4760e+00
   1.7795e-02      2.9530e-03      5.0850e+00      1.3600e+00
   2.0020e-02      3.2939e-03      5.3690e+00      1.2640e+00
   2.2244e-02      3.6047e-03      5.6470e+00      1.1810e+00
   2.4468e-02      3.9154e-03      5.9220e+00      1.1110e+00
   2.6693e-02      4.2262e-03      6.1940e+00      1.0490e+00
   2.8917e-02      4.5059e-03      6.4630e+00      9.9440e-01
   3.1142e-02      4.8166e-03      6.7290e+00      9.4610e-01
   3.3366e-02      5.0963e-03      6.9910e+00      9.0270e-01
   3.5590e-02      5.3759e-03      7.2520e+00      8.6370e-01
   3.7815e-02      5.6245e-03      7.5090e+00      8.2830e-01
   4.0039e-02      5.9042e-03      7.7640e+00      7.9600e-01
   4.4488e-02      6.4014e-03      8.2660e+00      7.3930e-01
   5.0049e-02      6.9918e-03      8.8790e+00      6.8000e-01
   5.5610e-02      7.5512e-03      9.4790e+00      6.3040e-01
   6.1171e-02      8.0795e-03      1.0060e+01      5.8830e-01
   6.6732e-02      8.5767e-03      1.0640e+01      5.5200e-01
   7.2293e-02      9.0428e-03      1.1200e+01      5.2040e-01
   7.7854e-02      9.5089e-03      1.1740e+01      4.9260e-01
   8.3415e-02      9.9439e-03      1.2280e+01      4.6790e-01
   8.8976e-02      1.0379e-02      1.2800e+01      4.4570e-01
   1.0010e-01      1.1187e-02      1.3800e+01      4.0780e-01
   1.1122e-01      1.1933e-02      1.4760e+01      3.7630e-01
   1.2234e-01      1.2647e-02      1.5670e+01      3.4980e-01
   1.3346e-01      1.3331e-02      1.6520e+01      3.2710e-01
   1.4459e-01      1.3953e-02      1.7340e+01      3.0740e-01
   1.5571e-01      1.4574e-02      1.8100e+01      2.9010e-01
   1.7795e-01      1.5755e-02      1.9500e+01      2.6130e-01
   2.0020e-01      1.6843e-02      2.0750e+01      2.3810e-01
   2.2244e-01      1.7868e-02      2.1860e+01      2.1900e-01
   2.4468e-01      1.8831e-02      2.2850e+01      2.0290e-01
   2.6693e-01      1.9795e-02      2.3730e+01      1.8920e-01
   2.8917e-01      2.0696e-02      2.4530e+01      1.7740e-01
   3.1142e-01      2.1597e-02      2.5250e+01      1.6710e-01
   3.3366e-01      2.2436e-02      2.5900e+01      1.5800e-01
   3.5590e-01      2.3306e-02      2.6500e+01      1.4990e-01
   3.7815e-01      2.4114e-02      2.7040e+01      1.4270e-01
   4.0039e-01      2.4922e-02      2.7530e+01      1.3620e-01
   4.4488e-01      2.6507e-02      2.8400e+01      1.2490e-01
   5.0049e-01      2.8433e-02      2.9290e+01      1.1330e-01
   5.5610e-01      3.0298e-02      3.0000e+01      1.0390e-01
   6.1171e-01      3.2131e-02      3.0550e+01      9.5980e-02
   6.6732e-01      3.3934e-02      3.0980e+01      8.9270e-02
   7.2293e-01      3.5705e-02      3.1300e+01      8.3500e-02
   7.7854e-01      3.7476e-02      3.1540e+01      7.8470e-02
   8.3415e-01      3.9216e-02      3.1710e+01      7.4060e-02
   8.8976e-01      4.0957e-02      3.1810e+01      7.0140e-02
   1.0010e+00      4.4437e-02      3.1900e+01      6.3510e-02
   1.1122e+00      4.7948e-02      3.1850e+01      5.8100e-02
   1.2234e+00      5.1429e-02      3.1710e+01      5.3580e-02
   1.3346e+00      5.4940e-02      3.1510e+01      4.9760e-02
   1.4459e+00      5.8483e-02      3.1250e+01      4.6480e-02
   1.5571e+00      6.2056e-02      3.0970e+01      4.3630e-02
   1.7795e+00      6.9297e-02      3.0330e+01      3.8910e-02
   2.0020e+00      7.6693e-02      2.9660e+01      3.5170e-02
   2.2244e+00      8.4244e-02      2.9350e+01      3.2120e-02
   2.4468e+00      9.1888e-02      2.8700e+01      2.9580e-02
   2.6693e+00      9.9719e-02      2.8020e+01      2.7440e-02
   2.8917e+00      1.0774e-01      2.7360e+01      2.5600e-02
   3.1142e+00      1.1597e-01      2.6730e+01      2.4000e-02
   3.3366e+00      1.2439e-01      2.6120e+01      2.2610e-02
   3.5590e+00      1.3300e-01      2.5530e+01      2.1370e-02
   3.7815e+00      1.4179e-01      2.4970e+01      2.0270e-02
   4.0039e+00      1.5081e-01      2.4430e+01      1.9290e-02
   4.4488e+00      1.6939e-01      2.3410e+01      1.7590e-02
   5.0049e+00      1.9375e-01      2.2250e+01      1.5870e-02
   5.5610e+00      2.1933e-01      2.1200e+01      1.4470e-02
   6.1171e+00      2.4617e-01      2.0230e+01      1.3300e-02
   6.6732e+00      2.7427e-01      1.9360e+01      1.2320e-02
   7.2293e+00      3.0360e-01      1.8550e+01      1.1480e-02
   7.7854e+00      3.3418e-01      1.7810e+01      1.0760e-02
   8.3415e+00      3.6600e-01      1.7130e+01      1.0120e-02
   8.8976e+00      3.9906e-01      1.6510e+01      9.5580e-03
   1.0010e+01      4.6883e-01      1.5390e+01      8.6120e-03
   1.1122e+01      5.4350e-01      1.4420e+01      7.8430e-03
   1.2234e+01      6.2299e-01      1.3580e+01      7.2060e-03
   1.3346e+01      7.0720e-01      1.2840e+01      6.6700e-03
   1.4459e+01      7.9614e-01      1.2180e+01      6.2110e-03
   1.5571e+01      8.8967e-01      1.1600e+01      5.8140e-03
   1.7795e+01      1.0902e+00      1.0610e+01      5.1600e-03
   2.0020e+01      1.3084e+00      9.7940e+00      4.6440e-03
   2.2244e+01      1.5439e+00      9.1090e+00      4.2260e-03
   2.4468e+01      1.7963e+00      8.5220e+00      3.8800e-03
   2.6693e+01      2.0656e+00      8.0070e+00      3.5890e-03
   2.8917e+01      2.3517e+00      7.5480e+00      3.3400e-03
   3.1142e+01      2.6547e+00      7.1410e+00      3.1240e-03
   3.3366e+01      2.9742e+00      6.7860e+00      2.9360e-03
   3.5590e+01      3.3250e+00      6.4680e+00      2.7700e-03
   3.7815e+01      3.6668e+00      6.1830e+00      2.6230e-03
   4.0039e+01      4.0397e+00      5.9250e+00      2.4910e-03
   4.4488e+01      4.8166e+00      5.4770e+00      2.2650e-03
   5.0049e+01      5.8731e+00      5.0160e+00      2.0360e-03
   5.5610e+01      7.0229e+00      4.6360e+00      1.8510e-03
   6.1171e+01      8.2659e+00      4.3060e+00      1.6980e-03
   6.6732e+01      9.6021e+00      4.0260e+00      1.5690e-03
   7.2293e+01      1.1032e+01      3.7860e+00      1.4590e-03
   7.7854e+01      1.2554e+01      3.5780e+00      1.3640e-03
   8.3415e+01      1.4139e+01      3.3950e+00      1.2820e-03
   8.8976e+01      1.5817e+01      3.2340e+00      1.2090e-03
   1.0010e+02      1.9422e+01      2.9610e+00      1.0860e-03
   1.1122e+02      2.3306e+01      2.7400e+00      9.8640e-04
   1.2234e+02      2.7532e+01      2.5570e+00      9.0430e-04
   1.3346e+02      3.2007e+01      2.4020e+00      8.3530e-04
   1.4459e+02      3.6762e+01      2.2700e+00      7.7640e-04
   1.5571e+02      4.1796e+01      2.1560e+00      7.2560e-04
   1.7795e+02      5.2579e+01      1.9700e+00      6.4220e-04
   2.0020e+02      6.4325e+01      1.8230e+00      5.7660e-04
   2.2244e+02      7.6941e+01      1.7040e+00      5.2350e-04
