#    Energy           Range       dE/dx (elec)    dE/dx (nucl)
#   [MeV/u]         [mg/cm2]     [MeV/(mg/cm2)]  [MeV/(mg/cm2)]
# ------------------------------------------------------------
   0.0000e+00      0.0000e+00      0.0000e+00      0.0000e+00
   9.3541e-04      1.1660e-04      1.3330e+00      7.7710e+00
   1.0290e-03      1.2572e-04      1.3980e+00      7.8020e+00
   1.1225e-03      1.3462e-04      1.4600e+00      7.8200e+00
   1.2160e-03      1.4352e-04      1.5200e+00      7.8290e+00
   1.3096e-03      1.5242e-04      1.5770e+00      7.8290e+00
   1.4031e-03      1.6111e-04      1.6320e+00      7.8230e+00
   1.4967e-03      1.7001e-04      1.6860e+00      7.8110e+00
   1.5902e-03      1.7870e-04      1.7380e+00      7.7960e+00
   1.6837e-03      1.8738e-04      1.7880e+00      7.7760e+00
   1.8708e-03      2.0497e-04      1.8850e+00      7.7280e+00
   2.1047e-03      2.2668e-04      1.9900e+00      7.6560e+00
   2.3385e-03      2.4861e-04      2.0840e+00      7.5760e+00
   2.5724e-03      2.7054e-04      2.1780e+00      7.4910e+00
   2.8062e-03      2.9247e-04      2.2700e+00      7.4020e+00
   3.0401e-03      3.1440e-04      2.3600e+00      7.3120e+00
   3.2739e-03      3.3633e-04      2.4470e+00      7.2210e+00
   3.5078e-03      3.5848e-04      2.5320e+00      7.1300e+00
   3.7416e-03      3.8041e-04      2.6140e+00      7.0400e+00
   4.2093e-03      4.2492e-04      2.7700e+00      6.8640e+00
   4.6770e-03      4.6943e-04      2.9140e+00      6.6950e+00
   5.1448e-03      5.1437e-04      3.0440e+00      6.5320e+00
   5.6125e-03      5.5954e-04      3.1610e+00      6.3770e+00
   6.0802e-03      6.0513e-04      3.2650e+00      6.2290e+00
   6.5479e-03      6.5073e-04      3.3580e+00      6.0880e+00
   7.4833e-03      7.4344e-04      3.5140e+00      5.8270e+00
   8.4187e-03      8.3746e-04      3.6410e+00      5.5890e+00
   9.3541e-03      9.3278e-04      3.7470e+00      5.3720e+00
   1.0290e-02      1.0294e-03      3.8380e+00      5.1750e+00
   1.1225e-02      1.1275e-03      3.9200e+00      4.9930e+00
   1.2160e-02      1.2268e-03      3.9950e+00      4.8260e+00
   1.3096e-02      1.3273e-03      4.0670e+00      4.6710e+00
   1.4031e-02      1.4287e-03      4.1360e+00      4.5280e+00
   1.4967e-02      1.5312e-03      4.2040e+00      4.3950e+00
   1.5902e-02      1.6345e-03      4.2720e+00      4.2700e+00
   1.6837e-02      1.7388e-03      4.3420e+00      4.1540e+00
   1.8708e-02      1.9487e-03      4.4840e+00      3.9420e+00
   2.1047e-02      2.2147e-03      4.6720e+00      3.7110e+00
   2.3385e-02      2.4753e-03      4.8740e+00      3.5090e+00
   2.5724e-02      2.7358e-03      5.0900e+00      3.3320e+00
   2.8062e-02      3.0181e-03      5.3210e+00      3.1740e+00
   3.0401e-02      3.2786e-03      5.5650e+00      3.0330e+00
   3.2739e-02      3.5392e-03      5.8230e+00      2.9060e+00
   3.5078e-02      3.7780e-03      6.0920e+00      2.7900e+00
   3.7416e-02      4.0386e-03      6.3710e+00      2.6850e+00
   4.2093e-02      4.5380e-03      6.9560e+00      2.5000e+00
   4.6770e-02      4.9939e-03      7.5700e+00      2.3420e+00
   5.1448e-02      5.4499e-03      8.2020e+00      2.2050e+00
   5.6125e-02      5.8624e-03      8.8470e+00      2.0860e+00
   6.0802e-02      6.2750e-03      9.4980e+00      1.9800e+00
   6.5479e-02      6.6658e-03      1.0150e+01      1.8860e+00
   7.4833e-02      7.3823e-03      1.1440e+01      1.7250e+00
   8.4187e-02      8.0554e-03      1.2700e+01      1.5930e+00
   9.3541e-02      8.6634e-03      1.3900e+01      1.4820e+00
   1.0290e-01      9.2496e-03      1.5050e+01      1.3870e+00
   1.1225e-01      9.7924e-03      1.6140e+01      1.3040e+00
   1.2160e-01      1.0314e-02      1.7170e+01      1.2320e+00
   1.3096e-01      1.0791e-02      1.8140e+01      1.1690e+00
   1.4031e-01      1.1269e-02      1.9050e+01      1.1120e+00
   1.4967e-01      1.1725e-02      1.9910e+01      1.0610e+00
   1.5902e-01      1.2159e-02      2.0720e+01      1.0150e+00
   1.6837e-01      1.2572e-02      2.1490e+01      9.7360e-01
   1.8708e-01      1.3375e-02      2.2900e+01      9.0070e-01
   2.1047e-01      1.4309e-02      2.4470e+01      8.2500e-01
   2.3385e-01      1.5199e-02      2.5860e+01      7.6220e-01
   2.5724e-01      1.6067e-02      2.7120e+01      7.0910e-01
   2.8062e-01      1.6871e-02      2.8250e+01      6.6350e-01
   3.0401e-01      1.7674e-02      2.9300e+01      6.2400e-01
   3.2739e-01      1.8434e-02      3.0260e+01      5.8930e-01
   3.5078e-01      1.9172e-02      3.1160e+01      5.5870e-01
   3.7416e-01      1.9911e-02      3.2010e+01      5.3130e-01
   4.2093e-01      2.1300e-02      3.3570e+01      4.8450e-01
   4.6770e-01      2.2646e-02      3.4990e+01      4.4600e-01
   5.1448e-01      2.3949e-02      3.6310e+01      4.1360e-01
   5.6125e-01      2.5187e-02      3.7530e+01      3.8590e-01
   6.0802e-01      2.6403e-02      3.8680e+01      3.6200e-01
   6.5479e-01      2.7575e-02      3.9770e+01      3.4110e-01
   7.4833e-01      2.9855e-02      4.1780e+01      3.0630e-01
   8.4187e-01      3.2026e-02      4.3610e+01      2.7840e-01
   9.3541e-01      3.4111e-02      4.5270e+01      2.5550e-01
   1.0290e+00      3.6130e-02      4.6800e+01      2.3640e-01
   1.1225e+00      3.8084e-02      4.8190e+01      2.2010e-01
   1.2160e+00      3.9995e-02      4.9480e+01      2.0600e-01
   1.3096e+00      4.1862e-02      5.0650e+01      1.9380e-01
   1.4031e+00      4.3664e-02      5.1730e+01      1.8300e-01
   1.4967e+00      4.5466e-02      5.2720e+01      1.7350e-01
   1.5902e+00      4.7203e-02      5.3630e+01      1.6490e-01
   1.6837e+00      4.8941e-02      5.4460e+01      1.5730e-01
   1.8708e+00      5.2306e-02      5.5910e+01      1.4400e-01
   2.1047e+00      5.6431e-02      5.7420e+01      1.3050e-01
   2.3385e+00      6.0470e-02      5.8110e+01      1.1940e-01
   2.5724e+00      6.4465e-02      5.8550e+01      1.1020e-01
   2.8062e+00      6.8439e-02      5.8950e+01      1.0230e-01
   3.0401e+00      7.2390e-02      5.9180e+01      9.5610e-02
   3.2739e+00      7.6320e-02      5.9280e+01      8.9770e-02
   3.5078e+00      8.0272e-02      5.9260e+01      8.4650e-02
   3.7416e+00      8.4202e-02      5.9140e+01      8.0110e-02
   4.2093e+00      9.2127e-02      5.8700e+01      7.2430e-02
   4.6770e+00      1.0014e-01      5.8040e+01      6.6170e-02
   5.1448e+00      1.0824e-01      5.7250e+01      6.0970e-02
   5.6125e+00      1.1647e-01      5.6360e+01      5.6560e-02
   6.0802e+00      1.2483e-01      5.5430e+01      5.2790e-02
   6.5479e+00      1.3334e-01      5.4470e+01      4.9510e-02
   7.4833e+00      1.5082e-01      5.2530e+01      4.4100e-02
   8.4187e+00      1.6893e-01      5.0640e+01      3.9810e-02
   9.3541e+00      1.8773e-01      4.8820e+01      3.6320e-02
   1.0290e+01      2.0723e-01      4.7110e+01      3.3420e-02
   1.1225e+01      2.2742e-01      4.5510e+01      3.0970e-02
   1.2160e+01      2.4831e-01      4.4010e+01      2.8880e-02
   1.3096e+01      2.6991e-01      4.2600e+01      2.7060e-02
   1.4031e+01      2.9221e-01      4.1290e+01      2.5470e-02
   1.4967e+01      3.1518e-01      4.0050e+01      2.4070e-02
   1.5902e+01      3.3887e-01      3.8900e+01      2.2820e-02
   1.6837e+01      3.6325e-01      3.7810e+01      2.1700e-02
   1.8708e+01      4.1408e-01      3.5820e+01      1.9770e-02
   2.1047e+01      4.8146e-01      3.3630e+01      1.7820e-02
   2.3385e+01      5.5307e-01      3.1700e+01      1.6230e-02
   2.5724e+01      6.2889e-01      3.0000e+01      1.4920e-02
   2.8062e+01      7.0888e-01      2.8490e+01      1.3810e-02
   3.0401e+01      7.9297e-01      2.7140e+01      1.2860e-02
   3.2739e+01      8.8110e-01      2.5930e+01      1.2040e-02
   3.5078e+01      9.7323e-01      2.4840e+01      1.1320e-02
   3.7416e+01      1.0693e+00      2.3840e+01      1.0690e-02
   4.2093e+01      1.2730e+00      2.2110e+01      9.6240e-03
   4.6770e+01      1.4920e+00      2.0640e+01      8.7590e-03
   5.1448e+01      1.7258e+00      1.9380e+01      8.0430e-03
   5.6125e+01      1.9742e+00      1.8290e+01      7.4400e-03
   6.0802e+01      2.2364e+00      1.7340e+01      6.9250e-03
   6.5479e+01      2.5187e+00      1.6500e+01      6.4790e-03
   7.4833e+01      3.1049e+00      1.5080e+01      5.7470e-03
   8.4187e+01      3.7563e+00      1.3930e+01      5.1690e-03
   9.3541e+01      4.4511e+00      1.2980e+01      4.7010e-03
