#    Energy           Range       dE/dx (elec)    dE/dx (nucl)
#   [MeV/u]         [mg/cm2]     [MeV/(mg/cm2)]  [MeV/(mg/cm2)]
# ------------------------------------------------------------
   0.0000e+00      0.0000e+00      0.0000e+00      0.0000e+00
   1.3348e-03      2.0408e-04      8.3250e-01      5.7410e+00
   1.4682e-03      2.2247e-04      8.7310e-01      5.6820e+00
   1.6017e-03      2.4096e-04      9.1200e-01      5.6190e+00
   1.7352e-03      2.5956e-04      9.4920e-01      5.5550e+00
   1.8687e-03      2.7828e-04      9.8500e-01      5.4900e+00
   2.0021e-03      2.9710e-04      1.0200e+00      5.4250e+00
   2.1356e-03      3.1605e-04      1.0570e+00      5.3600e+00
   2.2691e-03      3.3511e-04      1.0900e+00      5.2950e+00
   2.4026e-03      3.5429e-04      1.1210e+00      5.2320e+00
   2.6695e-03      3.9304e-04      1.1800e+00      5.1080e+00
   3.0032e-03      4.4215e-04      1.2510e+00      4.9600e+00
   3.3369e-03      4.9199e-04      1.3200e+00      4.8190e+00
   3.6706e-03      5.4250e-04      1.3870e+00      4.6860e+00
   4.0043e-03      5.9363e-04      1.4520e+00      4.5610e+00
   4.3380e-03      6.4536e-04      1.5140e+00      4.4430e+00
   4.6716e-03      6.9763e-04      1.5750e+00      4.3320e+00
   5.0053e-03      7.5042e-04      1.6340e+00      4.2260e+00
   5.3390e-03      8.0369e-04      1.6910e+00      4.1270e+00
   6.0064e-03      9.1159e-04      1.7980e+00      3.9430e+00
   6.6738e-03      1.0211e-03      1.8980e+00      3.7770e+00
   7.3412e-03      1.1320e-03      1.9900e+00      3.6270e+00
   8.0085e-03      1.2443e-03      2.0750e+00      3.4910e+00
   8.6759e-03      1.3577e-03      2.1540e+00      3.3650e+00
   9.3433e-03      1.4722e-03      2.2290e+00      3.2510e+00
   1.0678e-02      1.7018e-03      2.3670e+00      3.0460e+00
   1.2013e-02      1.9354e-03      2.4960e+00      2.8700e+00
   1.3348e-02      2.1690e-03      2.6190e+00      2.7160e+00
   1.4682e-02      2.4192e-03      2.7420e+00      2.5810e+00
   1.6017e-02      2.6528e-03      2.8650e+00      2.4600e+00
   1.7352e-02      2.8864e-03      2.9910e+00      2.3520e+00
   1.8687e-02      3.1367e-03      3.1200e+00      2.2540e+00
   2.0021e-02      3.3703e-03      3.2530e+00      2.1650e+00
   2.1356e-02      3.6038e-03      3.3900e+00      2.0850e+00
   2.2691e-02      3.8374e-03      3.5300e+00      2.0100e+00
   2.4026e-02      4.0710e-03      3.6740e+00      1.9420e+00
   2.6695e-02      4.5215e-03      3.9720e+00      1.8200e+00
   3.0032e-02      5.0554e-03      4.3610e+00      1.6910e+00
   3.3369e-02      5.5893e-03      4.7650e+00      1.5810e+00
   3.6706e-02      6.0898e-03      5.1810e+00      1.4860e+00
   4.0043e-02      6.5570e-03      5.6070e+00      1.4030e+00
   4.3380e-02      7.0075e-03      6.0410e+00      1.3310e+00
   4.6716e-02      7.4413e-03      6.4810e+00      1.2660e+00
   5.0053e-02      7.8584e-03      6.9240e+00      1.2080e+00
   5.3390e-02      8.2421e-03      7.3690e+00      1.1560e+00
   6.0064e-02      8.9762e-03      8.2620e+00      1.0650e+00
   6.6738e-02      9.6436e-03      9.1490e+00      9.8920e-01
   7.3412e-02      1.0278e-02      1.0020e+01      9.2450e-01
   8.0085e-02      1.0845e-02      1.0880e+01      8.6870e-01
   8.6759e-02      1.1395e-02      1.1720e+01      8.1990e-01
   9.3433e-02      1.1896e-02      1.2540e+01      7.7690e-01
   1.0678e-01      1.2847e-02      1.4090e+01      7.0430e-01
   1.2013e-01      1.3698e-02      1.5540e+01      6.4530e-01
   1.3348e-01      1.4482e-02      1.6890e+01      5.9640e-01
   1.4682e-01      1.5216e-02      1.8140e+01      5.5490e-01
   1.6017e-01      1.5900e-02      1.9290e+01      5.1940e-01
   1.7352e-01      1.6551e-02      2.0360e+01      4.8860e-01
   1.8687e-01      1.7168e-02      2.1350e+01      4.6150e-01
   2.0021e-01      1.7769e-02      2.2270e+01      4.3760e-01
   2.1356e-01      1.8353e-02      2.3120e+01      4.1620e-01
   2.2691e-01      1.8903e-02      2.3910e+01      3.9700e-01
   2.4026e-01      1.9437e-02      2.4660e+01      3.7970e-01
   2.6695e-01      2.0472e-02      2.6000e+01      3.4960e-01
   3.0032e-01      2.1706e-02      2.7460e+01      3.1850e-01
   3.3369e-01      2.2874e-02      2.8740e+01      2.9290e-01
   3.6706e-01      2.4009e-02      2.9860e+01      2.7140e-01
   4.0043e-01      2.5093e-02      3.0860e+01      2.5310e-01
   4.3380e-01      2.6145e-02      3.1770e+01      2.3730e-01
   4.6716e-01      2.7179e-02      3.2590e+01      2.2350e-01
   5.0053e-01      2.8180e-02      3.3350e+01      2.1130e-01
   5.3390e-01      2.9164e-02      3.4040e+01      2.0050e-01
   6.0064e-01      3.1066e-02      3.5280e+01      1.8210e-01
   6.6738e-01      3.2918e-02      3.6350e+01      1.6710e-01
   7.3412e-01      3.4720e-02      3.7290e+01      1.5450e-01
   8.0085e-01      3.6489e-02      3.8110e+01      1.4370e-01
   8.6759e-01      3.8207e-02      3.8830e+01      1.3450e-01
   9.3433e-01      3.9909e-02      3.9460e+01      1.2650e-01
   1.0678e+00      4.3229e-02      4.0510e+01      1.1310e-01
   1.2013e+00      4.6483e-02      4.1300e+01      1.0250e-01
   1.3348e+00      4.9686e-02      4.1890e+01      9.3820e-02
   1.4682e+00      5.2856e-02      4.2300e+01      8.6580e-02
   1.6017e+00      5.5993e-02      4.2570e+01      8.0440e-02
   1.7352e+00      5.9113e-02      4.2730e+01      7.5160e-02
   1.8687e+00      6.2233e-02      4.2780e+01      7.0580e-02
   2.0021e+00      6.5336e-02      4.2760e+01      6.6560e-02
   2.1356e+00      6.8456e-02      4.2900e+01      6.2990e-02
   2.2691e+00      7.1560e-02      4.2780e+01      5.9820e-02
   2.4026e+00      7.4696e-02      4.2440e+01      5.6960e-02
   2.6695e+00      8.1003e-02      4.2050e+01      5.2050e-02
   3.0032e+00      8.8995e-02      4.1410e+01      4.7040e-02
   3.3369e+00      9.7104e-02      4.0660e+01      4.2960e-02
   3.6706e+00      1.0540e-01      3.9850e+01      3.9560e-02
   4.0043e+00      1.1385e-01      3.9020e+01      3.6700e-02
   4.3380e+00      1.2248e-01      3.8190e+01      3.4240e-02
   4.6716e+00      1.3131e-01      3.7370e+01      3.2100e-02
   5.0053e+00      1.4033e-01      3.6570e+01      3.0240e-02
   5.3390e+00      1.4954e-01      3.5800e+01      2.8580e-02
   6.0064e+00      1.6856e-01      3.4350e+01      2.5790e-02
   6.6738e+00      1.8837e-01      3.3020e+01      2.3530e-02
   7.3412e+00      2.0896e-01      3.1800e+01      2.1640e-02
   8.0085e+00      2.3031e-01      3.0680e+01      2.0050e-02
   8.6759e+00      2.5242e-01      2.9650e+01      1.8690e-02
   9.3433e+00      2.7529e-01      2.8690e+01      1.7510e-02
   1.0678e+01      3.2328e-01      2.6960e+01      1.5570e-02
   1.2013e+01      3.7427e-01      2.5420e+01      1.4030e-02
   1.3348e+01      4.2824e-01      2.4040e+01      1.2780e-02
   1.4682e+01      4.8527e-01      2.2790e+01      1.1750e-02
   1.6017e+01      5.4537e-01      2.1640e+01      1.0880e-02
   1.7352e+01      6.0858e-01      2.0590e+01      1.0130e-02
   1.8687e+01      6.7495e-01      1.9640e+01      9.4850e-03
   2.0021e+01      7.4446e-01      1.8770e+01      8.9200e-03
   2.1356e+01      8.1712e-01      1.7980e+01      8.4220e-03
   2.2691e+01      8.9285e-01      1.7270e+01      7.9790e-03
   2.4026e+01      9.7155e-01      1.6650e+01      7.5820e-03
   2.6695e+01      1.1371e+00      1.5630e+01      6.9010e-03
   3.0032e+01      1.3566e+00      1.4780e+01      6.2110e-03
   3.3369e+01      1.5906e+00      1.3750e+01      5.6520e-03
   3.6706e+01      1.8353e+00      1.2870e+01      5.1890e-03
   4.0043e+01      2.1022e+00      1.2110e+01      4.7990e-03
   4.3380e+01      2.3859e+00      1.1450e+01      4.4660e-03
   4.6716e+01      2.6862e+00      1.0870e+01      4.1780e-03
   5.0053e+01      3.0032e+00      1.0350e+01      3.9270e-03
   5.3390e+01      3.3369e+00      9.8830e+00      3.7050e-03
   6.0064e+01      4.0376e+00      9.0880e+00      3.3320e-03
   6.6738e+01      4.8051e+00      8.4310e+00      3.0290e-03
   7.3412e+01      5.6227e+00      7.8790e+00      2.7790e-03
   8.0085e+01      6.4903e+00      7.4090e+00      2.5690e-03
   8.6759e+01      7.4246e+00      7.0030e+00      2.3890e-03
   9.3433e+01      8.3923e+00      6.6440e+00      2.2340e-03
   1.0678e+02      1.0511e+01      6.0350e+00      1.9790e-03
   1.2013e+02      1.2814e+01      5.5500e+00      1.7790e-03
   1.3348e+02      1.5316e+01      5.1560e+00      1.6160e-03
