#    Energy           Range       dE/dx (elec)    dE/dx (nucl)
#   [MeV/u]         [mg/cm2]     [MeV/(mg/cm2)]  [MeV/(mg/cm2)]
# ------------------------------------------------------------
   0.0000e+00      0.0000e+00      0.0000e+00      0.0000e+00
   7.1413e-04      4.6722e-04      4.2560e-01      7.4460e-01
   7.8555e-04      5.1203e-04      4.4630e-01      7.2980e-01
   8.5696e-04      5.5693e-04      4.6620e-01      7.1530e-01
   9.2837e-04      6.0201e-04      4.8520e-01      7.0130e-01
   9.9979e-04      6.4718e-04      5.0350e-01      6.8780e-01
   1.0712e-03      6.9244e-04      5.2120e-01      6.7480e-01
   1.1426e-03      7.3788e-04      5.3830e-01      6.6230e-01
   1.2140e-03      7.8340e-04      5.5490e-01      6.5030e-01
   1.2854e-03      8.2902e-04      5.7090e-01      6.3870e-01
   1.4283e-03      9.2034e-04      6.0180e-01      6.1680e-01
   1.6068e-03      1.0348e-03      6.3830e-01      5.9180e-01
   1.7853e-03      1.1493e-03      6.7290e-01      5.6890e-01
   1.9639e-03      1.2638e-03      7.0570e-01      5.4810e-01
   2.1424e-03      1.3792e-03      7.1580e-01      5.2890e-01
   2.3209e-03      1.4960e-03      7.3090e-01      5.1120e-01
   2.4995e-03      1.6135e-03      7.5300e-01      4.9490e-01
   2.6780e-03      1.7309e-03      7.7880e-01      4.7980e-01
   2.8565e-03      1.8478e-03      8.0620e-01      4.6570e-01
   3.2136e-03      2.0796e-03      8.6060e-01      4.4030e-01
   3.5707e-03      2.3085e-03      9.1030e-01      4.1790e-01
   3.9277e-03      2.5350e-03      9.5360e-01      3.9810e-01
   4.2848e-03      2.7597e-03      9.9030e-01      3.8030e-01
   4.6419e-03      2.9831e-03      1.0210e+00      3.6440e-01
   4.9989e-03      3.2060e-03      1.0460e+00      3.4990e-01
   5.7131e-03      3.6517e-03      1.0860e+00      3.2460e-01
   6.4272e-03      4.0986e-03      1.1140e+00      3.0320e-01
   7.1413e-03      4.5473e-03      1.1360e+00      2.8490e-01
   7.8555e-03      4.9983e-03      1.1540e+00      2.6890e-01
   8.5696e-03      5.4511e-03      1.1710e+00      2.5490e-01
   9.2837e-03      5.9052e-03      1.1880e+00      2.4250e-01
   9.9979e-03      6.3597e-03      1.2050e+00      2.3140e-01
   1.0712e-02      6.8140e-03      1.2220e+00      2.2140e-01
   1.1426e-02      7.2672e-03      1.2410e+00      2.1230e-01
   1.2140e-02      7.7184e-03      1.2610e+00      2.0410e-01
   1.2854e-02      8.1671e-03      1.2830e+00      1.9650e-01
   1.4283e-02      9.0159e-03      1.3300e+00      1.8320e-01
   1.6068e-02      1.0176e-02      1.3970e+00      1.6920e-01
   1.7853e-02      1.1158e-02      1.4720e+00      1.5740e-01
   1.9639e-02      1.2230e-02      1.5530e+00      1.4730e-01
   2.1424e-02      1.3211e-02      1.6390e+00      1.3850e-01
   2.3209e-02      1.4104e-02      1.7300e+00      1.3090e-01
   2.4995e-02      1.4997e-02      1.8230e+00      1.2420e-01
   2.6780e-02      1.5889e-02      1.9190e+00      1.1810e-01
   2.8565e-02      1.6693e-02      2.0160e+00      1.1270e-01
   3.2136e-02      1.8210e-02      2.2140e+00      1.0350e-01
   3.5707e-02      1.9639e-02      2.4110e+00      9.5720e-02
   3.9277e-02      2.0978e-02      2.6070e+00      8.9160e-02
   4.2848e-02      2.2227e-02      2.7980e+00      8.3530e-02
   4.6419e-02      2.3388e-02      2.9850e+00      7.8640e-02
   4.9989e-02      2.4459e-02      3.1650e+00      7.4340e-02
   5.7131e-02      2.6512e-02      3.5080e+00      6.7130e-02
   6.4272e-02      2.8387e-02      3.8250e+00      6.1300e-02
   7.1413e-02      3.0172e-02      4.1170e+00      5.6480e-02
   7.8555e-02      3.1779e-02      4.3850e+00      5.2430e-02
   8.5696e-02      3.3386e-02      4.6310e+00      4.8970e-02
   9.2837e-02      3.4814e-02      4.8570e+00      4.5970e-02
   9.9979e-02      3.6242e-02      5.0640e+00      4.3350e-02
   1.0712e-01      3.7581e-02      5.2540e+00      4.1030e-02
   1.1426e-01      3.8920e-02      5.4290e+00      3.8970e-02
   1.2140e-01      4.0170e-02      5.5900e+00      3.7130e-02
   1.2854e-01      4.1420e-02      5.7370e+00      3.5460e-02
   1.4283e-01      4.3830e-02      5.9990e+00      3.2570e-02
   1.6068e-01      4.6686e-02      6.2710e+00      2.9610e-02
   1.7853e-01      4.9454e-02      6.4940e+00      2.7170e-02
   1.9639e-01      5.2132e-02      6.6760e+00      2.5140e-02
   2.1424e-01      5.4810e-02      6.8260e+00      2.3410e-02
   2.3209e-01      5.7398e-02      6.9480e+00      2.1910e-02
   2.4995e-01      5.9898e-02      7.0480e+00      2.0610e-02
   2.6780e-01      6.2397e-02      7.1290e+00      1.9470e-02
   2.8565e-01      6.4897e-02      7.1940e+00      1.8450e-02
   3.2136e-01      6.9806e-02      7.2870e+00      1.6730e-02
   3.5707e-01      7.4627e-02      7.3430e+00      1.5320e-02
   3.9277e-01      7.9447e-02      7.3700e+00      1.4140e-02
   4.2848e-01      8.4268e-02      7.3780e+00      1.3150e-02
   4.6419e-01      8.9088e-02      7.3700e+00      1.2290e-02
   4.9989e-01      9.3998e-02      7.3510e+00      1.1540e-02
   5.7131e-01      1.0373e-01      7.2880e+00      1.0310e-02
   6.4272e-01      1.1355e-01      7.2030e+00      9.3250e-03
   7.1413e-01      1.2346e-01      7.1040e+00      8.5240e-03
   7.8555e-01      1.3363e-01      6.9980e+00      7.8570e-03
   8.5696e-01      1.4390e-01      6.8870e+00      7.2920e-03
   9.2837e-01      1.5434e-01      6.7730e+00      6.8080e-03
   9.9979e-01      1.6496e-01      6.6580e+00      6.3880e-03
   1.0712e+00      1.7577e-01      6.5430e+00      6.0190e-03
   1.1426e+00      1.8675e-01      6.4290e+00      5.6930e-03
   1.2140e+00      1.9790e-01      6.3150e+00      5.4020e-03
   1.2854e+00      2.0933e-01      6.2030e+00      5.1420e-03
   1.4283e+00      2.3272e-01      5.9850e+00      4.6930e-03
   1.6068e+00      2.6325e-01      5.7240e+00      4.2360e-03
   1.7853e+00      2.9512e-01      5.4770e+00      3.8650e-03
   1.9639e+00      3.2832e-01      5.2440e+00      3.5570e-03
   2.1424e+00      3.6305e-01      5.0550e+00      3.2960e-03
   2.3209e+00      3.9902e-01      4.8490e+00      3.0730e-03
   2.4995e+00      4.3660e-01      4.6500e+00      2.8800e-03
   2.6780e+00      4.7570e-01      4.4790e+00      2.7110e-03
   2.8565e+00      5.1632e-01      4.3180e+00      2.5610e-03
   3.2136e+00      6.0192e-01      4.0250e+00      2.3090e-03
   3.5707e+00      6.9360e-01      3.7670e+00      2.1040e-03
   3.9277e+00      7.9135e-01      3.5390e+00      1.9350e-03
   4.2848e+00      8.9517e-01      3.3370e+00      1.7910e-03
   4.6419e+00      1.0051e+00      3.1580e+00      1.6690e-03
   4.9989e+00      1.1212e+00      2.9970e+00      1.5630e-03
   5.7131e+00      1.3711e+00      2.7240e+00      1.3880e-03
   6.4272e+00      1.6447e+00      2.5000e+00      1.2500e-03
   7.1413e+00      1.9416e+00      2.3140e+00      1.1380e-03
   7.8555e+00      2.2613e+00      2.1560e+00      1.0450e-03
   8.5696e+00      2.6032e+00      2.0220e+00      9.6700e-04
   9.2837e+00      2.9671e+00      1.9040e+00      9.0030e-04
   9.9979e+00      3.3526e+00      1.8010e+00      8.4250e-04
   1.0712e+01      3.7594e+00      1.7100e+00      7.9200e-04
   1.1426e+01      4.1875e+00      1.6270e+00      7.4750e-04
   1.2140e+01      4.6366e+00      1.5530e+00      7.0790e-04
   1.2854e+01      5.1068e+00      1.4850e+00      6.7250e-04
   1.4283e+01      6.1099e+00      1.3650e+00      6.1180e-04
   1.6068e+01      7.4823e+00      1.2390e+00      5.5020e-04
   1.7853e+01      9.0159e+00      1.1340e+00      5.0040e-04
   1.9639e+01      1.0623e+01      1.0450e+00      4.5920e-04
   2.1424e+01      1.2408e+01      9.6930e-01      4.2450e-04
   2.3209e+01      1.4283e+01      9.0600e-01      3.9490e-04
   2.4995e+01      1.6336e+01      8.5360e-01      3.6930e-04
   2.6780e+01      1.8478e+01      8.1120e-01      3.4690e-04
   2.8565e+01      2.0710e+01      7.7820e-01      3.2720e-04
   3.2136e+01      2.5530e+01      7.1700e-01      2.9410e-04
   3.5707e+01      3.0708e+01      6.5840e-01      2.6730e-04
   3.9277e+01      3.6332e+01      6.0970e-01      2.4510e-04
   4.2848e+01      4.2402e+01      5.6850e-01      2.2650e-04
   4.6419e+01      4.8918e+01      5.3310e-01      2.1060e-04
   4.9989e+01      5.5792e+01      5.0250e-01      1.9680e-04
   5.7131e+01      7.0788e+01      4.5190e-01      1.7430e-04
   6.4272e+01      8.7303e+01      4.1190e-01      1.5650e-04
   7.1413e+01      1.0542e+02      3.7940e-01      1.4220e-04
   7.8555e+01      1.2488e+02      3.5250e-01      1.3030e-04
   8.5696e+01      1.4586e+02      3.2970e-01      1.2040e-04
   9.2837e+01      1.6818e+02      3.1030e-01      1.1190e-04
   9.9979e+01      1.9183e+02      2.9350e-01      1.0450e-04
   1.0712e+02      2.1683e+02      2.7890e-01      9.8110e-05
   1.1426e+02      2.4307e+02      2.6590e-01      9.2480e-05
   1.2140e+02      2.7048e+02      2.5450e-01      8.7470e-05
   1.2854e+02      2.9913e+02      2.4420e-01      8.3010e-05
   1.4283e+02      3.5983e+02      2.2660e-01      7.5350e-05
