#    Energy           Range       dE/dx (elec)    dE/dx (nucl)
#   [MeV/u]         [mg/cm2]     [MeV/(mg/cm2)]  [MeV/(mg/cm2)]
# ------------------------------------------------------------
   0.0000e+00      0.0000e+00      0.0000e+00      0.0000e+00
   1.6969e-03      3.0888e-04      7.5510e-01      4.3230e+00
   1.8666e-03      3.3888e-04      7.9200e-01      4.2440e+00
   2.0363e-03      3.6919e-04      8.3400e-01      4.1670e+00
   2.2060e-03      3.9973e-04      8.8520e-01      4.0920e+00
   2.3757e-03      4.3055e-04      9.2040e-01      4.0190e+00
   2.5454e-03      4.6167e-04      9.4680e-01      3.9480e+00
   2.7151e-03      4.9315e-04      9.6810e-01      3.8800e+00
   2.8848e-03      5.2501e-04      9.8610e-01      3.8140e+00
   3.0545e-03      5.5723e-04      1.0020e+00      3.7500e+00
   3.3939e-03      6.2279e-04      1.0320e+00      3.6290e+00
   3.8181e-03      7.0675e-04      1.0670e+00      3.4890e+00
   4.2423e-03      7.9278e-04      1.1050e+00      3.3610e+00
   4.6666e-03      8.8064e-04      1.1460e+00      3.2430e+00
   5.0908e-03      9.7013e-04      1.1890e+00      3.1350e+00
   5.5150e-03      1.0610e-03      1.2340e+00      3.0340e+00
   5.9392e-03      1.1533e-03      1.2800e+00      2.9410e+00
   6.3635e-03      1.2466e-03      1.3260e+00      2.8540e+00
   6.7877e-03      1.3409e-03      1.3720e+00      2.7730e+00
   7.6362e-03      1.5321e-03      1.4620e+00      2.6270e+00
   8.4846e-03      1.7261e-03      1.5480e+00      2.4970e+00
   9.3331e-03      1.9225e-03      1.6290e+00      2.3820e+00
   1.0182e-02      2.1207e-03      1.7060e+00      2.2790e+00
   1.1030e-02      2.3121e-03      1.7790e+00      2.1850e+00
   1.1878e-02      2.5242e-03      1.8490e+00      2.1010e+00
   1.3575e-02      2.9272e-03      1.9830e+00      1.9520e+00
   1.5272e-02      3.3302e-03      2.1140e+00      1.8260e+00
   1.6969e-02      3.7332e-03      2.2450e+00      1.7180e+00
   1.8666e-02      4.1363e-03      2.3800e+00      1.6240e+00
   2.0363e-02      4.5393e-03      2.5190e+00      1.5400e+00
   2.2060e-02      4.9423e-03      2.6630e+00      1.4670e+00
   2.3757e-02      5.3241e-03      2.8130e+00      1.4000e+00
   2.5454e-02      5.7059e-03      2.9680e+00      1.3410e+00
   2.7151e-02      6.0877e-03      3.1280e+00      1.2870e+00
   2.8848e-02      6.4483e-03      3.2940e+00      1.2370e+00
   3.0545e-02      6.8089e-03      3.4640e+00      1.1920e+00
   3.3939e-02      7.4877e-03      3.8190e+00      1.1120e+00
   3.8181e-02      8.2725e-03      4.2860e+00      1.0280e+00
   4.2423e-02      9.0149e-03      4.7750e+00      9.5730e-01
   4.6666e-02      9.7149e-03      5.2820e+00      8.9660e-01
   5.0908e-02      1.0351e-02      5.8030e+00      8.4400e-01
   5.5150e-02      1.0966e-02      6.3340e+00      7.9790e-01
   5.9392e-02      1.1518e-02      6.8730e+00      7.5710e-01
   6.3635e-02      1.2048e-02      7.4150e+00      7.2080e-01
   6.7877e-02      1.2536e-02      7.9590e+00      6.8820e-01
   7.6362e-02      1.3448e-02      9.0430e+00      6.3190e-01
   8.4846e-02      1.4275e-02      1.0110e+01      5.8500e-01
   9.3331e-02      1.5018e-02      1.1150e+01      5.4530e-01
   1.0182e-01      1.5718e-02      1.2150e+01      5.1110e-01
   1.1030e-01      1.6354e-02      1.3120e+01      4.8130e-01
   1.1878e-01      1.6948e-02      1.4040e+01      4.5520e-01
   1.3575e-01      1.8051e-02      1.5760e+01      4.1130e-01
   1.5272e-01      1.9027e-02      1.7310e+01      3.7580e-01
   1.6969e-01      1.9960e-02      1.8700e+01      3.4650e-01
   1.8666e-01      2.0809e-02      1.9940e+01      3.2170e-01
   2.0363e-01      2.1615e-02      2.1050e+01      3.0060e-01
   2.2060e-01      2.2399e-02      2.2050e+01      2.8230e-01
   2.3757e-01      2.3142e-02      2.2950e+01      2.6630e-01
   2.5454e-01      2.3863e-02      2.3760e+01      2.5210e-01
   2.7151e-01      2.4542e-02      2.4490e+01      2.3950e-01
   2.8848e-01      2.5221e-02      2.5150e+01      2.2820e-01
   3.0545e-01      2.5878e-02      2.5760e+01      2.1800e-01
   3.3939e-01      2.7151e-02      2.6820e+01      2.0030e-01
   3.8181e-01      2.8699e-02      2.7930e+01      1.8220e-01
   4.2423e-01      3.0184e-02      2.8850e+01      1.6730e-01
   4.6666e-01      3.1605e-02      2.9640e+01      1.5480e-01
   5.0908e-01      3.3026e-02      3.0320e+01      1.4410e-01
   5.5150e-01      3.4405e-02      3.0910e+01      1.3500e-01
   5.9392e-01      3.5742e-02      3.1430e+01      1.2700e-01
   6.3635e-01      3.7078e-02      3.1890e+01      1.2000e-01
   6.7877e-01      3.8393e-02      3.2300e+01      1.1370e-01
   7.6362e-01      4.0981e-02      3.3000e+01      1.0310e-01
   8.4846e-01      4.3526e-02      3.3560e+01      9.4480e-02
   9.3331e-01      4.6029e-02      3.4010e+01      8.7240e-02
   1.0182e+00      4.8511e-02      3.4370e+01      8.1110e-02
   1.1030e+00      5.0950e-02      3.4650e+01      7.5830e-02
   1.1878e+00      5.3390e-02      3.4860e+01      7.1240e-02
   1.3575e+00      5.8226e-02      3.5100e+01      6.3640e-02
   1.5272e+00      6.3041e-02      3.5160e+01      5.7590e-02
   1.6969e+00      6.7877e-02      3.5080e+01      5.2650e-02
   1.8666e+00      7.2713e-02      3.4880e+01      4.8540e-02
   2.0363e+00      7.7592e-02      3.4670e+01      4.5060e-02
   2.2060e+00      8.2492e-02      3.4490e+01      4.2070e-02
   2.3757e+00      8.7434e-02      3.4010e+01      3.9480e-02
   2.5454e+00      9.2440e-02      3.3600e+01      3.7210e-02
   2.7151e+00      9.7531e-02      3.3210e+01      3.5200e-02
   2.8848e+00      1.0266e-01      3.2800e+01      3.3400e-02
   3.0545e+00      1.0786e-01      3.2370e+01      3.1790e-02
   3.3939e+00      1.1849e-01      3.1490e+01      2.9020e-02
   3.8181e+00      1.3219e-01      3.0380e+01      2.6210e-02
   4.2423e+00      1.4640e-01      2.9310e+01      2.3910e-02
   4.6666e+00      1.6112e-01      2.8290e+01      2.2010e-02
   5.0908e+00      1.7635e-01      2.7340e+01      2.0400e-02
   5.5150e+00      1.9213e-01      2.6440e+01      1.9020e-02
   5.9392e+00      2.0843e-01      2.5600e+01      1.7830e-02
   6.3635e+00      2.2525e-01      2.4820e+01      1.6780e-02
   6.7877e+00      2.4260e-01      2.4090e+01      1.5860e-02
   7.6362e+00      2.7881e-01      2.2770e+01      1.4300e-02
   8.4846e+00      3.1703e-01      2.1620e+01      1.3030e-02
   9.3331e+00      3.5725e-01      2.0590e+01      1.1980e-02
   1.0182e+01      3.9939e-01      1.9670e+01      1.1100e-02
   1.1030e+01      4.4345e-01      1.8840e+01      1.0340e-02
   1.1878e+01      4.8942e-01      1.8080e+01      9.6820e-03
   1.3575e+01      5.8699e-01      1.6730e+01      8.6010e-03
   1.5272e+01      6.9211e-01      1.5570e+01      7.7470e-03
   1.6969e+01      8.0481e-01      1.4560e+01      7.0530e-03
   1.8666e+01      9.2510e-01      1.3670e+01      6.4790e-03
   2.0363e+01      1.0529e+00      1.2890e+01      5.9950e-03
   2.2060e+01      1.1883e+00      1.2200e+01      5.5820e-03
   2.3757e+01      1.3308e+00      1.1620e+01      5.2240e-03
   2.5454e+01      1.4801e+00      1.1120e+01      4.9110e-03
   2.7151e+01      1.6356e+00      1.0700e+01      4.6360e-03
   2.8848e+01      1.7967e+00      1.0370e+01      4.3900e-03
   3.0545e+01      1.9628e+00      1.0060e+01      4.1710e-03
   3.3939e+01      2.3121e+00      9.3370e+00      3.7950e-03
   3.8181e+01      2.7787e+00      8.5820e+00      3.4140e-03
   4.2423e+01      3.3090e+00      7.9540e+00      3.1050e-03
   4.6666e+01      3.8605e+00      7.4240e+00      2.8490e-03
   5.0908e+01      4.4332e+00      6.9700e+00      2.6340e-03
   5.5150e+01      5.0696e+00      6.5770e+00      2.4510e-03
   5.9392e+01      5.7271e+00      6.2330e+00      2.2920e-03
   6.3635e+01      6.4271e+00      5.9300e+00      2.1530e-03
   6.7877e+01      7.1695e+00      5.6600e+00      2.0310e-03
   7.6362e+01      8.7180e+00      5.1910e+00      1.8260e-03
   8.4846e+01      1.0436e+01      4.7990e+00      1.6590e-03
   9.3331e+01      1.2260e+01      4.4730e+00      1.5220e-03
   1.0182e+02      1.4212e+01      4.1980e+00      1.4060e-03
   1.1030e+02      1.6291e+01      3.9610e+00      1.3080e-03
   1.1878e+02      1.8497e+01      3.7570e+00      1.2220e-03
   1.3575e+02      2.3227e+01      3.4190e+00      1.0820e-03
   1.5272e+02      2.8402e+01      3.1520e+00      9.7220e-04
   1.6969e+02      3.3981e+01      2.9360e+00      8.8310e-04
