#    Energy           Range       dE/dx (elec)    dE/dx (nucl)
#   [MeV/u]         [mg/cm2]     [MeV/(mg/cm2)]  [MeV/(mg/cm2)]
# ------------------------------------------------------------
   0.0000e+00      0.0000e+00      0.0000e+00      0.0000e+00
   9.9206e-03      1.7382e-02      7.3600e-01      1.0580e-02
   1.0913e-02      1.8613e-02      7.6770e-01      9.8700e-03
   1.1905e-02      1.9804e-02      7.9730e-01      9.2590e-03
   1.2897e-02      2.0961e-02      8.2510e-01      8.7260e-03
   1.3889e-02      2.2083e-02      8.5120e-01      8.2580e-03
   1.4881e-02      2.3178e-02      8.7580e-01      7.8420e-03
   1.5873e-02      2.4247e-02      8.9890e-01      7.4700e-03
   1.6865e-02      2.5287e-02      9.2080e-01      7.1350e-03
   1.7857e-02      2.6315e-02      9.4140e-01      6.8320e-03
   1.9841e-02      2.8301e-02      9.7940e-01      6.3040e-03
   2.2321e-02      3.0703e-02      1.0210e+00      5.7580e-03
   2.4802e-02      3.3016e-02      1.0580e+00      5.3060e-03
   2.7282e-02      3.5268e-02      1.0900e+00      4.9260e-03
   2.9762e-02      3.7458e-02      1.1180e+00      4.6010e-03
   3.2242e-02      3.9608e-02      1.1420e+00      4.3200e-03
   3.4722e-02      4.1717e-02      1.1640e+00      4.0740e-03
   3.7202e-02      4.3792e-02      1.1820e+00      3.8570e-03
   3.9683e-02      4.5840e-02      1.1980e+00      3.6640e-03
   4.4643e-02      4.9867e-02      1.2240e+00      3.3340e-03
   4.9603e-02      5.3834e-02      1.2420e+00      3.0630e-03
   5.4563e-02      5.7759e-02      1.2540e+00      2.8360e-03
   5.9524e-02      6.1657e-02      1.2610e+00      2.6430e-03
   6.4484e-02      6.5549e-02      1.2630e+00      2.4760e-03
   6.9444e-02      6.9392e-02      1.2620e+00      2.3300e-03
   7.9365e-02      7.7556e-02      1.2500e+00      2.0880e-03
   8.9286e-02      8.5040e-02      1.2290e+00      1.8950e-03
   9.9206e-02      9.3203e-02      1.2030e+00      1.7370e-03
   1.0913e-01      1.0137e-01      1.1730e+00      1.6050e-03
   1.1905e-01      1.1021e-01      1.1410e+00      1.4920e-03
   1.2897e-01      1.1906e-01      1.1080e+00      1.3960e-03
   1.3889e-01      1.2790e-01      1.0750e+00      1.3120e-03
   1.4881e-01      1.3742e-01      1.0430e+00      1.2380e-03
   1.5873e-01      1.4695e-01      1.0120e+00      1.1720e-03
   1.6865e-01      1.5647e-01      9.8200e-01      1.1140e-03
   1.7857e-01      1.6668e-01      9.5340e-01      1.0620e-03
   1.9841e-01      1.8845e-01      9.0040e-01      9.7090e-04
   2.2321e-01      2.1702e-01      8.4140e-01      8.7850e-04
   2.4802e-01      2.4696e-01      7.8990e-01      8.0310e-04
   2.7282e-01      2.7961e-01      7.4480e-01      7.4030e-04
   2.9762e-01      3.1363e-01      7.0510e-01      6.8720e-04
   3.2242e-01      3.4968e-01      6.6990e-01      6.4160e-04
   3.4722e-01      3.8710e-01      6.3850e-01      6.0200e-04
   3.7202e-01      4.2656e-01      6.1040e-01      5.6730e-04
   3.9683e-01      4.6806e-01      5.8510e-01      5.3660e-04
   4.4643e-01      5.5650e-01      5.4120e-01      4.8470e-04
   4.9603e-01      6.5106e-01      5.0440e-01      4.4250e-04
   5.4563e-01      7.5243e-01      4.7300e-01      4.0730e-04
   5.9524e-01      8.5992e-01      4.4590e-01      3.7770e-04
   6.4484e-01      9.7421e-01      4.2220e-01      3.5220e-04
   6.9444e-01      1.0940e+00      4.0130e-01      3.3020e-04
   7.9365e-01      1.3525e+00      3.6570e-01      2.9380e-04
   8.9286e-01      1.6348e+00      3.3650e-01      2.6500e-04
   9.9206e-01      1.9409e+00      3.1190e-01      2.4160e-04
   1.0913e+00      2.2702e+00      2.8960e-01      2.2220e-04
   1.1905e+00      2.6260e+00      2.6750e-01      2.0580e-04
   1.2897e+00      3.0084e+00      2.5110e-01      1.9180e-04
   1.3889e+00      3.4138e+00      2.3710e-01      1.7960e-04
   1.4881e+00      3.8431e+00      2.2480e-01      1.6900e-04
   1.5873e+00      4.2948e+00      2.1390e-01      1.5960e-04
   1.6865e+00      4.7683e+00      2.0410e-01      1.5130e-04
   1.7857e+00      5.2643e+00      1.9540e-01      1.4380e-04
   1.9841e+00      6.3195e+00      1.8030e-01      1.3100e-04
   2.2321e+00      7.7556e+00      1.6490e-01      1.1800e-04
   2.4802e+00      9.3197e+00      1.5210e-01      1.0740e-04
   2.7282e+00      1.1008e+01      1.4140e-01      9.8660e-05
   2.9762e+00      1.2819e+01      1.3230e-01      9.1290e-05
   3.2242e+00      1.4750e+01      1.2430e-01      8.4990e-05
   3.4722e+00      1.6800e+01      1.1740e-01      7.9540e-05
   3.7202e+00      1.8967e+01      1.1120e-01      7.4770e-05
   3.9683e+00      2.1251e+01      1.0570e-01      7.0570e-05
   4.4643e+00      2.6160e+01      9.6350e-02      6.3500e-05
   4.9603e+00      3.1520e+01      8.8620e-02      5.7760e-05
   5.4563e+00      3.7326e+01      8.2140e-02      5.3020e-05
   5.9524e+00      4.3570e+01      7.6620e-02      4.9030e-05
   6.4484e+00      5.0247e+01      7.1850e-02      4.5610e-05
   6.9444e+00      5.7350e+01      6.7680e-02      4.2670e-05
   7.9365e+00      7.2794e+01      6.0760e-02      3.7820e-05
   8.9286e+00      8.9802e+01      5.5220e-02      3.4000e-05
   9.9206e+00      1.0885e+02      5.0670e-02      3.0910e-05
   1.0913e+01      1.2926e+02      4.6880e-02      2.8350e-05
   1.1905e+01      1.5103e+02      4.3660e-02      2.6200e-05
   1.2897e+01      1.7416e+02      4.0890e-02      2.4370e-05
   1.3889e+01      1.9933e+02      3.8480e-02      2.2780e-05
   1.4881e+01      2.2587e+02      3.6360e-02      2.1400e-05
   1.5873e+01      2.5376e+02      3.4480e-02      2.0180e-05
   1.6865e+01      2.8301e+02      3.2810e-02      1.9090e-05
   1.7857e+01      3.1431e+02      3.1300e-02      1.8130e-05
   1.9841e+01      3.8030e+02      2.8710e-02      1.6470e-05
   2.2321e+01      4.7078e+02      2.6060e-02      1.4790e-05
   2.4802e+01      5.7011e+02      2.3900e-02      1.3430e-05
   2.7282e+01      6.7760e+02      2.2100e-02      1.2310e-05
   2.9762e+01      7.9393e+02      2.0580e-02      1.1370e-05
   3.2242e+01      9.1843e+02      1.9280e-02      1.0570e-05
   3.4722e+01      1.0511e+03      1.8150e-02      9.8760e-06
   3.7202e+01      1.1912e+03      1.7160e-02      9.2710e-06
   3.9683e+01      1.3395e+03      1.6290e-02      8.7390e-06
   4.4643e+01      1.6586e+03      1.4810e-02      7.8440e-06
   4.9603e+01      2.0076e+03      1.3610e-02      7.1210e-06
   5.4563e+01      2.3859e+03      1.2610e-02      6.5250e-06
   5.9524e+01      2.7927e+03      1.1770e-02      6.0230e-06
   6.4484e+01      3.2274e+03      1.1050e-02      5.5960e-06
   6.9444e+01      3.6887e+03      1.0430e-02      5.2270e-06
   7.9365e+01      4.6901e+03      9.4000e-03      4.6220e-06
   8.9286e+01      5.7929e+03      8.5900e-03      4.1470e-06
   9.9206e+01      6.9937e+03      7.9340e-03      3.7630e-06
   1.0913e+02      8.2883e+03      7.3910e-03      3.4460e-06
   1.1905e+02      9.6728e+03      6.9340e-03      3.1800e-06
   1.2897e+02      1.1144e+04      6.5450e-03      2.9530e-06
   1.3889e+02      1.2699e+04      6.2080e-03      2.7580e-06
   1.4881e+02      1.4334e+04      5.9150e-03      2.5870e-06
   1.5873e+02      1.6048e+04      5.6560e-03      2.4370e-06
   1.6865e+02      1.7837e+04      5.4270e-03      2.3040e-06
   1.7857e+02      1.9699e+04      5.2230e-03      2.1860e-06
   1.9841e+02      2.3628e+04      4.8730e-03      1.9820e-06
   2.2321e+02      2.8908e+04      4.5220e-03      1.7770e-06
   2.4802e+02      3.4569e+04      4.2390e-03      1.6120e-06
   2.7282e+02      4.0583e+04      4.0070e-03      1.4750e-06
   2.9762e+02      4.6924e+04      3.8130e-03      1.3610e-06
   3.2242e+02      5.3568e+04      3.6490e-03      1.2630e-06
   3.4722e+02      6.0495e+04      3.5080e-03      1.1790e-06
   3.7202e+02      6.7685e+04      3.3870e-03      1.1060e-06
   3.9683e+02      7.4835e+04      3.2810e-03      1.0420e-06
   4.4643e+02      9.0482e+04      3.1050e-03      9.3350e-07
   4.9603e+02      1.0681e+05      2.9660e-03      8.4630e-07
   5.4563e+02      1.2382e+05      2.8530e-03      7.7440e-07
   5.9524e+02      1.4151e+05      2.7610e-03      7.1410e-07
   6.4484e+02      1.5987e+05      2.6840e-03      6.6280e-07
   6.9444e+02      1.7892e+05      2.6190e-03      6.1850e-07
   7.9365e+02      2.1702e+05      2.5180e-03      5.4610e-07
   8.9286e+02      2.5716e+05      2.4420e-03      4.8920e-07
   9.9206e+02      2.9798e+05      2.3850e-03      4.4330e-07
