#    Energy           Range       dE/dx (elec)    dE/dx (nucl)
#   [MeV/u]         [mg/cm2]     [MeV/(mg/cm2)]  [MeV/(mg/cm2)]
# ------------------------------------------------------------
   0.0000e+00      0.0000e+00      0.0000e+00      0.0000e+00
   1.0000e-03      1.3448e-02      6.1407e-02      3.7078e-02
   1.1250e-03      1.4306e-02      1.1390e-01      3.5742e-02
   1.2500e-03      1.5119e-02      1.2280e-01      3.4568e-02
   1.3750e-03      1.5894e-02      1.3117e-01      3.3522e-02
   1.5000e-03      1.6637e-02      1.3909e-01      3.2580e-02
   1.6250e-03      1.7350e-02      1.4662e-01      3.1725e-02
   1.7500e-03      1.8039e-02      1.5382e-01      3.0941e-02
   1.8750e-03      1.8704e-02      1.6071e-01      3.0219e-02
   2.0000e-03      1.9348e-02      1.6869e-01      2.9549e-02
   2.2500e-03      2.0582e-02      1.7968e-01      2.8341e-02
   2.5000e-03      2.1752e-02      1.9148e-01      2.7276e-02
   2.7500e-03      2.2867e-02      2.0262e-01      2.6325e-02
   3.0000e-03      2.3936e-02      2.1318e-01      2.5466e-02
   3.2500e-03      2.4962e-02      2.2324e-01      2.4685e-02
   3.5000e-03      2.5952e-02      2.3287e-01      2.3970e-02
   3.7500e-03      2.6909e-02      2.4211e-01      2.3310e-02
   4.0000e-03      2.7836e-02      2.5287e-01      2.2699e-02
   4.5000e-03      2.9611e-02      2.6757e-01      2.1600e-02
   5.0000e-03      3.1294e-02      2.8347e-01      2.0635e-02
   5.5000e-03      3.2899e-02      2.9848e-01      1.9777e-02
   6.0000e-03      3.4436e-02      3.1274e-01      1.9007e-02
   6.5000e-03      3.5914e-02      3.2633e-01      1.8312e-02
   7.0000e-03      3.7338e-02      3.3936e-01      1.7678e-02
   7.5000e-03      3.8715e-02      3.5186e-01      1.7098e-02
   8.0000e-03      4.0048e-02      3.6652e-01      1.6565e-02
   9.0000e-03      4.2602e-02      3.8637e-01      1.5613e-02
   1.0000e-02      4.5024e-02      4.0908e-01      1.4788e-02
   1.1250e-02      4.7894e-02      4.3306e-01      1.3896e-02
   1.2500e-02      5.0617e-02      4.5690e-01      1.3126e-02
   1.3750e-02      5.3213e-02      4.7946e-01      1.2452e-02
   1.5000e-02      5.5699e-02      5.0090e-01      1.1857e-02
   1.6250e-02      5.8089e-02      5.2137e-01      1.1326e-02
   1.7500e-02      6.0392e-02      5.4100e-01      1.0849e-02
   1.8750e-02      6.2619e-02      5.5987e-01      1.0417e-02
   2.0000e-02      6.4776e-02      5.8208e-01      1.0025e-02
   2.2500e-02      6.8906e-02      6.1199e-01      9.3352e-03
   2.5000e-02      7.2823e-02      6.4466e-01      8.7482e-03
   2.7500e-02      7.6559e-02      6.7558e-01      8.2412e-03
   3.0000e-02      8.0135e-02      7.0500e-01      7.7981e-03
   3.2500e-02      8.3573e-02      7.3311e-01      7.4068e-03
   3.5000e-02      8.6887e-02      7.6008e-01      7.0583e-03
   3.7500e-02      9.0091e-02      7.8602e-01      6.7456e-03
   4.0000e-02      9.3194e-02      8.1664e-01      6.4632e-03
   4.5000e-02      9.9136e-02      8.5775e-01      5.9723e-03
   5.0000e-02      1.0477e-01      9.0276e-01      5.5593e-03
   5.5000e-02      1.1015e-01      9.4539e-01      5.2063e-03
   6.0000e-02      1.1529e-01      9.8598e-01      4.9006e-03
   6.5000e-02      1.2024e-01      1.0248e+00      4.6328e-03
   7.0000e-02      1.2501e-01      1.0620e+00      4.3961e-03
   7.5000e-02      1.2962e-01      1.0979e+00      4.1850e-03
   8.0000e-02      1.3408e-01      1.1402e+00      3.9955e-03
   9.0000e-02      1.4263e-01      1.1970e+00      3.6688e-03
   1.0000e-01      1.5074e-01      1.4591e+00      3.3965e-03
   1.1250e-01      1.5770e-01      1.7293e+00      3.1133e-03
   1.2500e-01      1.6517e-01      1.6252e+00      2.8779e-03
   1.3750e-01      1.7305e-01      1.5491e+00      2.6788e-03
   1.5000e-01      1.8128e-01      1.4900e+00      2.5079e-03
   1.6250e-01      1.8980e-01      1.4417e+00      2.3594e-03
   1.7500e-01      1.9859e-01      1.4010e+00      2.2291e-03
   1.8750e-01      2.0762e-01      1.3657e+00      2.1137e-03
   2.0000e-01      2.1687e-01      1.3274e+00      2.0107e-03
   2.2500e-01      2.3598e-01      1.2809e+00      1.8344e-03
   2.5000e-01      2.5585e-01      1.2349e+00      1.6889e-03
   2.7500e-01      2.7642e-01      1.1945e+00      1.5665e-03
   3.0000e-01      2.9765e-01      1.1584e+00      1.4620e-03
   3.2500e-01      3.1953e-01      1.1255e+00      1.3716e-03
   3.5000e-01      3.4202e-01      1.0953e+00      1.2926e-03
   3.7500e-01      3.6512e-01      1.0672e+00      1.2229e-03
   4.0000e-01      3.8882e-01      1.0349e+00      1.1609e-03
   4.5000e-01      4.3795e-01      9.9370e-01      1.0552e-03
   5.0000e-01      4.8934e-01      9.5128e-01      9.6847e-04
   5.5000e-01      5.4296e-01      9.1306e-01      8.9581e-04
   6.0000e-01      5.9876e-01      8.7835e-01      8.3400e-04
   6.5000e-01      6.5670e-01      8.4662e-01      7.8073e-04
   7.0000e-01      7.1677e-01      8.1745e-01      7.3431e-04
   7.5000e-01      7.7892e-01      7.9052e-01      6.9346e-04
   8.0000e-01      8.4315e-01      7.5963e-01      6.5721e-04
   9.0000e-01      9.7775e-01      7.2073e-01      5.9567e-04
   1.0000e+00      1.1204e+00      6.7910e-01      5.4532e-04
   1.1250e+00      1.3099e+00      6.3852e-01      4.9386e-04
   1.2500e+00      1.5117e+00      6.0124e-01      4.5180e-04
   1.3750e+00      1.7254e+00      5.6851e-01      4.1674e-04
   1.5000e+00      1.9511e+00      5.3949e-01      3.8703e-04
   1.6250e+00      2.1885e+00      5.1358e-01      3.6152e-04
   1.7500e+00      2.4375e+00      4.9027e-01      3.3934e-04
   1.8750e+00      2.6981e+00      4.6919e-01      3.1988e-04
   2.0000e+00      2.9700e+00      4.4550e-01      3.0266e-04
   2.2500e+00      3.5477e+00      4.1643e-01      2.7352e-04
   2.5000e+00      4.1699e+00      3.8787e-01      2.4977e-04
   2.7500e+00      4.8360e+00      3.6329e-01      2.3001e-04
   3.0000e+00      5.5453e+00      3.4189e-01      2.1331e-04
   3.2500e+00      6.2975e+00      3.2308e-01      1.9899e-04
   3.5000e+00      7.0920e+00      3.0640e-01      1.8657e-04
   3.7500e+00      7.9284e+00      2.9150e-01      1.7569e-04
   4.0000e+00      8.8063e+00      2.7498e-01      1.6607e-04
   4.5000e+00      1.0685e+01      2.5502e-01      1.4982e-04
   5.0000e+00      1.2725e+01      2.3572e-01      1.3661e-04
   5.5000e+00      1.4925e+01      2.1937e-01      1.2564e-04
   6.0000e+00      1.7281e+01      2.0533e-01      1.1638e-04
   6.5000e+00      1.9792e+01      1.9313e-01      1.0846e-04
   7.0000e+00      2.2456e+01      1.8242e-01      1.0159e-04
   7.5000e+00      2.5271e+01      1.7295e-01      9.5586e-05
   8.0000e+00      2.8235e+01      1.6254e-01      9.0282e-05
   9.0000e+00      3.4605e+01      1.5009e-01      8.1336e-05
   1.0000e+01      4.1553e+01      1.3754e-01      7.4074e-05
   1.1250e+01      5.1035e+01      1.2599e-01      6.6708e-05
   1.2500e+01      6.1384e+01      1.1596e-01      6.0731e-05
   1.3750e+01      7.2583e+01      1.0756e-01      5.5780e-05
   1.5000e+01      8.4615e+01      1.0042e-01      5.1608e-05
   1.6250e+01      9.7465e+01      9.4280e-02      4.8042e-05
   1.7500e+01      1.1112e+02      8.8932e-02      4.4957e-05
   1.8750e+01      1.2556e+02      8.4232e-02      4.2261e-05
   2.0000e+01      1.4078e+02      7.9110e-02      3.9883e-05
   2.2500e+01      1.7351e+02      7.3028e-02      3.5879e-05
   2.5000e+01      2.0922e+02      6.7258e-02      3.2634e-05
   2.7500e+01      2.4782e+02      6.2453e-02      2.9949e-05
   3.0000e+01      2.8924e+02      5.8384e-02      2.7689e-05
   3.2500e+01      3.3342e+02      5.4891e-02      2.5759e-05
   3.5000e+01      3.8029e+02      5.1858e-02      2.4090e-05
   3.7500e+01      4.2979e+02      4.9197e-02      2.2633e-05
   4.0000e+01      4.8187e+02      4.6304e-02      2.1349e-05
   4.5000e+01      5.9357e+02      4.2873e-02      1.9188e-05
   5.0000e+01      7.1501e+02      3.9620e-02      1.7439e-05
   5.5000e+01      8.4586e+02      3.6912e-02      1.5994e-05
   6.0000e+01      9.8581e+02      3.4620e-02      1.4777e-05
   6.5000e+01      1.1346e+03      3.2653e-02      1.3740e-05
   7.0000e+01      1.2919e+03      3.0943e-02      1.2843e-05
   7.5000e+01      1.4576e+03      2.9442e-02      1.2061e-05
   8.0000e+01      1.6314e+03      2.7810e-02      1.1372e-05
   9.0000e+01      2.0027e+03      2.5871e-02      1.0213e-05
   1.0000e+02      2.4042e+03      2.3925e-02      9.2761e-06
   1.1250e+02      2.9468e+03      2.2146e-02      8.3292e-06
   1.2500e+02      3.5327e+03      2.0603e-02      7.5636e-06
   1.3750e+02      4.1598e+03      1.9312e-02      6.9313e-06
   1.5000e+02      4.8267e+03      1.8216e-02      6.3999e-06
   1.6250e+02      5.5318e+03      1.7270e-02      5.9469e-06
   1.7500e+02      6.2738e+03      1.6445e-02      5.5558e-06
   1.8750e+02      7.0515e+03      1.5717e-02      5.2147e-06
   2.0000e+02      7.8639e+03      1.4922e-02      4.9144e-06
   2.2500e+02      9.5888e+03      1.3971e-02      4.4100e-06
   2.5000e+02      1.1442e+04      1.3059e-02      4.0025e-06
   2.7500e+02      1.3417e+04      1.2291e-02      3.6661e-06
   3.0000e+02      1.5508e+04      1.1634e-02      3.3836e-06
   3.2500e+02      1.7713e+04      1.1064e-02      3.1429e-06
   3.5000e+02      2.0026e+04      1.0564e-02      2.9351e-06
   3.7500e+02      2.2445e+04      1.0120e-02      2.7540e-06
   4.0000e+02      2.4966e+04      9.6317e-03      2.5947e-06
   4.5000e+02      3.0303e+04      9.0430e-03      2.3271e-06
   5.0000e+02      3.6021e+04      8.4731e-03      2.1111e-06
   5.5000e+02      4.2103e+04      7.9889e-03      1.9328e-06
   6.0000e+02      4.8535e+04      7.5709e-03      1.7832e-06
   6.5000e+02      5.5308e+04      7.2051e-03      1.6558e-06
   7.0000e+02      6.2411e+04      6.8814e-03      1.5459e-06
   7.5000e+02      6.9837e+04      6.5922e-03      1.4501e-06
   8.0000e+02      7.7577e+04      6.2713e-03      1.3658e-06
   9.0000e+02      9.3980e+04      6.0952e-03      1.2244e-06
